RF_mav,RF_rms,RF_wl,BF_mav,BF_rms,BF_wl,VM_mav,VM_rms,VM_wl,ST_mav,ST_rms,ST_wl,prediction_label
0.0632895,0.08540794547347454,3.3663,0.030836500000000003,0.048323890054506165,3.1109999999999998,0.053183999999999995,0.06261980836764035,2.1491000000000002,0.021793500000000004,0.03042362650967172,1.9987,-11.5975
0.027424999999999998,0.034876474879207614,1.38,0.008877000000000001,0.017403608821161203,1.0906,0.030559,0.03549037193380763,0.7052999999999999,0.0071475,0.010306117115577525,0.9555,-4.733499999999999
0.00821,0.011496234166021498,0.3086,0.005991000000000001,0.009441678876132148,0.7037,0.005115,0.006476079060666261,0.28990000000000005,0.009572500000000001,0.012774096836958768,1.0514000000000001,1.6210000000000002
0.004948,0.00775858878920645,0.30300000000000005,0.010166,0.017853512259496728,1.1198000000000001,0.005601,0.0066921595916415505,0.3415,0.007599,0.010457318011803983,0.7920999999999999,-2.9844999999999997
0.015603,0.025492640114354575,0.7111999999999998,0.002708,0.003923302180561676,0.3271,0.053073999999999996,0.07773571637284885,1.7250999999999999,0.006194999999999999,0.008433563896716501,0.5753000000000001,-32.4785
0.018096,0.023704147316450767,0.7495,0.0026024999999999998,0.0034667780430826544,0.2399,0.00931,0.012071690022527915,0.31489999999999996,0.0029354999999999997,0.0038483827772195426,0.2898,-50.913000000000004
0.015014500000000002,0.01988929485929554,0.6923000000000001,0.004249,0.008385702117294652,0.4754,0.037887500000000005,0.11855355604114116,2.1830999999999996,0.0039225,0.006449236388906829,0.39560000000000006,-15.002499999999998
0.12467600000000001,0.2584342427001499,6.460700000000001,0.047583,0.06995828614252925,4.457,0.10382300000000001,0.1712929908081472,3.5375999999999994,0.029322,0.03863329781419132,2.9957,-8.68
0.053761,0.07691087309347099,2.2491000000000003,0.016566499999999998,0.029021580763287168,1.6757,0.044049500000000005,0.05261880889948004,1.0533,0.013562000000000003,0.020076640655249077,1.8848000000000003,-6.0889999999999995
0.0384795,0.06303607340245743,1.5685999999999998,0.0079415,0.013102604702882553,1.0822,0.026676500000000002,0.03819468876689533,0.9603,0.010584,0.015873298333994732,1.4884,1.0715000000000001
0.025446000000000003,0.03450829900183433,1.3493,0.016654500000000003,0.027463176254759754,1.6956000000000002,0.009424000000000002,0.013018198800141285,0.4329,0.012504,0.016613557716515747,1.1389,-2.3235
0.060263500000000005,0.12077818408139775,3.2108,0.0030884999999999997,0.004836026261301731,0.3397,0.059047,0.10496271861951749,2.1421,0.0045745,0.006418017606706919,0.46330000000000005,-26.606000000000005
0.023477,0.034973204028227095,0.994,0.0026024999999999998,0.0032662746363403064,0.21400000000000002,0.016002500000000003,0.026886908524410162,0.5129000000000001,0.003808,0.004855121007760774,0.29660000000000003,-52.602999999999994
0.028886000000000002,0.039153663940939165,1.0009000000000001,0.0033809999999999995,0.00488170052338322,0.4181,0.009574000000000001,0.013410492160990961,0.4989,0.005625,0.007813289960061639,0.7751999999999999,-20.16
0.11972349999999998,0.25222824257009757,7.254299999999999,0.036042,0.048008351356821244,3.6950000000000003,0.1235445,0.1840990715620261,5.0714999999999995,0.028213999999999996,0.03836752011793308,2.8818,-8.831
0.042035,0.05392511566978786,1.9101,0.009988,0.016144584231252285,1.0344,0.025551499999999998,0.029893255928386254,0.8251000000000001,0.013545000000000003,0.018129950358453824,1.6084999999999998,-9.242
0.024417,0.03512329426463298,0.9506,0.0064215,0.012927898127692685,0.6753,0.0131365,0.015845429940522283,0.4133,0.0114845,0.01488164473436992,1.2774,-0.055
0.004520499999999999,0.006194299799008763,0.20389999999999997,0.0152705,0.041083297701133975,1.5212,0.007479500000000001,0.012255327413006965,0.34120000000000006,0.0138795,0.019471542055009408,1.4899,0.43750000000000006
0.007081500000000001,0.009307134360263637,0.35250000000000004,0.017413,0.02780265634791036,2.4682,0.00479,0.006027379198291742,0.3263,0.0097225,0.01354132379053097,1.0267000000000002,-10.8235
0.0071195,0.008800502826543493,0.4037,0.006023000000000001,0.010706166447426455,0.7550000000000001,0.011805,0.015157648234472259,0.4447,0.0063315,0.009581980484221412,0.7580999999999999,-42.917
0.0122145,0.015082077111591758,0.39980000000000004,0.0086265,0.014569130035798294,1.3202,0.0069700000000000005,0.009989684679708365,0.4164,0.008766000000000001,0.01162141127402348,1.1425,-39.2385
0.101848,0.18793275526102415,4.5487,0.0168325,0.025597922767287194,1.7770000000000001,0.09990500000000001,0.18221949977979857,4.0699000000000005,0.01214,0.01642773569302842,1.3399999999999999,-6.315999999999999
0.0520255,0.07226727440550114,2.2732,0.0205655,0.031938261536908985,2.394,0.022784999999999996,0.03442767781887126,0.8503000000000001,0.025149499999999998,0.03219012193204617,2.5616999999999996,-6.025499999999999
0.01845,0.026301108341664995,0.8917999999999999,0.0027205000000000003,0.0035724571376015138,0.39339999999999997,0.009233,0.01256629221369613,0.5043000000000001,0.010677500000000001,0.014275823969214526,1.7543,-0.873
0.0120485,0.016606888630926627,0.5381,0.0020529999999999997,0.0027006665843824556,0.3149,0.005465,0.007321591357075319,0.3054,0.008713,0.012480536847427677,1.3476000000000001,0.8555000000000001
0.004491,0.005917617763931698,0.3226,0.0023915,0.003103876608372182,0.3634,0.0041695,0.0055817425594522,0.41100000000000003,0.0113745,0.015501440255666568,1.7963999999999998,-0.13450000000000004
0.0096615,0.015962570281756006,0.4944,0.0018759999999999998,0.0024052234823400504,0.2953,0.004738,0.0061989999193418285,0.4633,0.007434,0.010914119295664677,1.085,-6.5585
0.006330500000000001,0.007873369672509985,0.4366000000000001,0.0019825,0.0026142398512760835,0.2485,0.005037000000000001,0.006389076615599472,0.4339,0.004591,0.007919981060583416,0.6885000000000001,-8.9815
0.007995500000000001,0.01137953206419315,0.6169,0.0068709999999999995,0.016047470205611848,0.6096,0.005119,0.006255245798527823,0.4032,0.0034465,0.006252363553089344,0.3367,-7.1145000000000005
0.006281999999999999,0.00815733412335182,0.4998,0.031634999999999996,0.04779584814604716,3.3616,0.003458,0.0045148532645037315,0.368,0.012031999999999998,0.01693291174015857,1.126,-8.4345
0.0087585,0.012540201354045316,0.6809000000000001,0.009555500000000001,0.017599606529692644,1.0974,0.004904500000000001,0.006185487046304438,0.43399999999999994,0.0063085,0.011167848942388144,0.743,-9.3785
0.006134999999999999,0.007924310695574727,0.603,0.0076285,0.018716066627365913,0.8934,0.0065195,0.008115093961255163,0.41070000000000007,0.005489999999999999,0.008828850434796141,0.6025,-5.2545
0.009852500000000002,0.016475389221502476,0.7389,0.0014704999999999998,0.0019311783967308667,0.17880000000000001,0.0055509999999999995,0.0069668285467635845,0.3356,0.0015949999999999998,0.0020870553418632673,0.1874,-0.5405000000000001
0.0165845,0.02495441544095954,1.9554000000000002,0.001344,0.001600624877977348,0.15860000000000002,0.004396,0.0053029614367822815,0.27999999999999997,0.001382,0.0017608520664723654,0.1623,1.064
0.0232255,0.03665702729354905,2.9557,0.0013879999999999997,0.0017867568385205638,0.199,0.0037965000000000004,0.00490752992858933,0.29769999999999996,0.0012564999999999998,0.0015791928317973078,0.16990000000000002,0.45050000000000007
0.0029315,0.0036150172890319623,0.1975,0.00528,0.008787297650586327,0.6104999999999999,0.0024545,0.0031198477526956344,0.2386,0.00649,0.008709345555206775,0.6416999999999999,-3.1205000000000003
0.0266115,0.043191154765761935,1.5698,0.0016110000000000002,0.0022798903482404583,0.2117,0.041331,0.060173956160452007,1.2481,0.0022195,0.0030785629764550865,0.2219,-22.881999999999998
0.0201155,0.026260358908438402,1.6721,0.0012900000000000001,0.0015832245576670417,0.1553,0.005946,0.007153481669788496,0.3345,0.0012345000000000001,0.0014899496635792768,0.1568,-32.559
0.051318,0.10674301663340792,2.3884000000000003,0.002714,0.004025046583581363,0.32880000000000004,0.07491149999999999,0.11276140319275917,2.7826,0.004912499999999999,0.007484039684555394,0.5570999999999999,-8.584499999999998
0.0233125,0.02850031666490743,1.1722000000000001,0.0463365,0.06174968137569618,4.6556,0.038315499999999995,0.0534856714457246,1.5251,0.0279305,0.034977886585670095,2.8712,-10.7925
0.048014,0.08418349184964947,2.7062,0.0110455,0.01994480508804235,1.3765,0.010756000000000002,0.01682223825773491,0.6415000000000001,0.010396,0.017714386808467292,1.2216,-9.3005
0.0246945,0.037355712414569205,0.8036000000000001,0.006858500000000001,0.013501027738657528,0.9214,0.008265500000000002,0.009872752908890205,0.36460000000000004,0.010364499999999999,0.014315049772878893,1.2214,-1.3840000000000001
0.0040345,0.005112205981765602,0.2633,0.0064435,0.011372007298625867,0.9511000000000001,0.0035970000000000004,0.004652837843725053,0.2683,0.0108185,0.01431436166931659,1.2067999999999999,-1.3105000000000002
0.038523,0.061261931899018664,1.7705000000000004,0.0075945,0.019566298832431234,0.5866,0.04600799999999999,0.0820220116797924,1.7304,0.0037324999999999997,0.0072673413295372335,0.3491,-20.195
0.015766999999999996,0.02388925909273873,0.6129,0.0029154999999999997,0.0038727315941077044,0.21559999999999999,0.0126275,0.020703097594321485,0.33730000000000004,0.0023725,0.00303386716914238,0.2011,-52.38849999999999
0.0239775,0.04726727250434491,1.5091999999999997,0.0033840000000000003,0.005466818087333802,0.37039999999999995,0.00874,0.01174925955113768,0.39130000000000004,0.0051155,0.008270541094753113,0.6771999999999999,-26.7885
0.0950185,0.20568286644735387,7.3246,0.039098,0.053763497840077334,3.2283,0.11464399999999998,0.17029897298574645,4.8420000000000005,0.021689999999999997,0.029691842314009415,2.322,-7.090999999999999
0.061283,0.09315177346674619,2.9234999999999993,0.0201715,0.02914854112987475,2.1950000000000003,0.045228000000000004,0.05392273546473695,1.3621999999999996,0.015412000000000002,0.020401004877211318,1.6911999999999998,-10.640999999999998
0.0367995,0.04626967311317425,1.6118000000000001,0.012407,0.019417517864031952,1.5578999999999998,0.015665,0.018946033885750335,0.4259,0.010499500000000002,0.01328477135670765,1.1174,1.1825
0.0075855,0.0095701750245228,0.3071,0.012649500000000001,0.02148753010469095,1.4171999999999998,0.036205499999999995,0.059731737376373044,1.2526000000000002,0.013445499999999999,0.017477821660607483,1.3532,1.1565
0.0212005,0.041715755416868575,1.2133999999999998,0.00956,0.017413578035544563,1.2931,0.0437065,0.0783288130256038,1.7215,0.009459,0.013097747898016666,0.8748000000000001,-17.7505
0.026755,0.035446823553035044,1.2453999999999998,0.002908,0.003674738085904899,0.2368,0.022654999999999998,0.0389405007671961,0.643,0.002754,0.0035750244754406925,0.23879999999999996,-50.586499999999994
0.011550500000000002,0.015021829116322686,0.5163,0.0025670000000000003,0.004229432586056905,0.31779999999999997,0.006085500000000001,0.007361986824220755,0.28069999999999995,0.0028055000000000003,0.004126287677804348,0.3234,-28.629499999999997
0.1173835,0.24737130118508088,6.8386000000000005,0.0237315,0.03613720728003203,2.4091,0.11448149999999999,0.1772405869150743,4.3137,0.017722500000000002,0.025339168297321836,1.6396000000000002,-4.9270000000000005
0.06901249999999999,0.1072700202759373,2.998,0.021669,0.034887074970538876,2.0418,0.06189,0.07265068203396303,1.8737,0.021199500000000003,0.029210199417326818,2.2278000000000002,-10.642999999999999
0.032889999999999996,0.053620026109654224,1.5937000000000001,0.0032245,0.00413368479688522,0.39690000000000003,0.025197499999999998,0.032906146082457,0.5974000000000002,0.008225,0.011822588549044579,1.0345,-0.0354999999999999
0.0096155,0.016122141607119073,0.4205,0.0073985,0.01265715410351,0.9651000000000001,0.0184285,0.028718319066407767,0.5333,0.0074540000000000006,0.009376897141378912,0.788,-0.9304999999999999
0.0139195,0.019979275512390333,0.5601,0.005119000000000001,0.008280048309037816,0.49760000000000004,0.0188275,0.04167176562134127,0.7572000000000001,0.005322,0.0073752694866018285,0.6171,-15.812499999999998
0.0181315,0.024270524304184284,1.1162,0.004849999999999999,0.010285723115075576,0.48040000000000005,0.0490865,0.08513886098603858,1.5894000000000001,0.003861,0.005268851867342638,0.40149999999999997,-49.452999999999996
0.0118065,0.014761424389265422,0.5072000000000001,0.0137995,0.022326136029326704,1.6877,0.006689499999999999,0.008996935589410431,0.39680000000000004,0.013335,0.021444668335043094,1.6899999999999995,-31.171
0.12667849999999997,0.26057700809933326,7.908200000000001,0.030922,0.04510441774371996,2.8804999999999996,0.12589950000000003,0.19688647096740802,5.0228,0.0158705,0.024621920111965276,1.8084,-7.2075
0.053118,0.07642611726366845,2.1863,0.008223000000000001,0.016950171090581948,1.0029,0.022139,0.02678378987372773,0.8501,0.0159715,0.021320102016641477,2.2023,-7.694
0.014420500000000001,0.018822785394303362,0.5438000000000001,0.0019339999999999995,0.0027337154204488804,0.2806,0.0115705,0.014069738803545714,0.3953,0.007217,0.010516867404317695,0.9486,0.34450000000000003
0.004895,0.006130163129966445,0.3013,0.0019755,0.0024813202131123667,0.2117,0.0122635,0.019474019872640573,0.43600000000000005,0.004969,0.0068119380502174275,0.7381000000000001,0.893
0.0034835,0.004517172788371063,0.4975,0.007827500000000001,0.012782646439607097,1.0203,0.0029054999999999997,0.003660935672748157,0.40469999999999995,0.003203,0.004341647152867216,0.36860000000000004,-4.7125
0.0026334999999999996,0.00341790140290793,0.38270000000000004,0.006102499999999999,0.008496372755476303,0.7539,0.0023,0.0029572115243925315,0.3479,0.0029995,0.004166959323055602,0.3204,-4.9935
0.003771,0.008322505632320114,0.3249,0.011080999999999999,0.01593554517423235,1.4044000000000003,0.0020065,0.002582411663542434,0.243,0.0066315,0.009004390595703854,0.7737999999999998,-5.3245000000000005
0.0014239999999999997,0.0018169479904499193,0.1825,0.008508,0.01250642235013675,1.0896999999999997,0.001937,0.002638219096284461,0.2758,0.0128965,0.016601573720584444,1.9115,-8.493
0.0031409999999999997,0.004102084835787773,0.24019999999999997,0.006514000000000001,0.010241552616669017,0.7586,0.0023825,0.003048056758001727,0.3108000000000001,0.010513500000000002,0.013909509337140543,1.5741999999999998,-16.561500000000002
0.0022215,0.0027732201499340073,0.21299999999999997,0.0101125,0.012740563174365567,0.9219,0.0041655,0.005298070403458225,0.42100000000000004,0.024301,0.031117700750537467,2.9617999999999998,-28.3305
0.006288499999999999,0.008427268240657823,0.42200000000000004,0.016885499999999998,0.0213197549235445,1.2357,0.017121,0.034862127014856685,0.9199999999999999,0.047692,0.06241515040436897,3.216,-49.71
0.011419000000000002,0.01688670186863024,0.573,0.0201645,0.024708082685631436,2.1540000000000004,0.005765499999999999,0.0071058954397035705,0.48419999999999996,0.058285000000000003,0.07352585871650871,5.2956,-74.41
0.004724000000000001,0.006128588744564282,0.4708,0.034659999999999996,0.046975936393008705,4.9045000000000005,0.009647000000000001,0.011910142736340317,0.786,0.10323650000000001,0.12937660936197082,9.307099999999998,-95.317
0.007623,0.00954635532546322,0.7646999999999999,0.0723325,0.08993454036130946,8.1598,0.015512999999999999,0.019377750127401273,1.5036,0.1079,0.13892602024099013,11.652000000000001,-109.84049999999999
0.0093725,0.011907852451218903,0.9324,0.059685999999999996,0.07759518735076293,7.586,0.016241500000000002,0.02004476614979581,1.5600999999999998,0.0985705,0.13331224568658348,11.792900000000001,-112.91699999999999
0.0066415,0.008004014617677807,0.6313000000000001,0.048276000000000006,0.06041842682493479,6.1738,0.014677500000000001,0.019448854722065253,1.4209,0.09661049999999999,0.12286122720370328,10.811399999999999,-112.93400000000001
0.0056405000000000005,0.007119785811385059,0.6101000000000001,0.039009999999999996,0.05064948765782335,4.7787,0.0116015,0.014350489538688218,1.156,0.07153000000000001,0.08622129551334752,7.669700000000001,-112.588
0.0049715,0.006606107023050717,0.5230999999999999,0.041260500000000006,0.05430451500566044,4.2129,0.010824,0.014209225876169329,1.0164,0.07285349999999999,0.08860869116514475,7.4249,-111.98349999999999
0.0046775,0.005862998379668888,0.4906,0.0247415,0.033071346359046225,3.2283,0.009975000000000001,0.01216920293199189,0.9401999999999999,0.0589915,0.07022445692207238,6.5343,-111.6865
0.0048200000000000005,0.006030082918169534,0.5453,0.03914,0.04852393636134645,3.9279,0.010126500000000004,0.012567937380493268,1.0238999999999998,0.0722665,0.08908367330773917,7.1912,-111.34450000000001
0.005796,0.007115672842395159,0.6117000000000001,0.029171500000000003,0.036605220256132866,3.1304000000000003,0.010830000000000001,0.013186694051201764,0.9163000000000001,0.062384,0.07752712622043977,6.8798,-111.47
0.0040725,0.005254821595449269,0.4153,0.021375,0.026747044696564144,1.9726000000000004,0.0082315,0.010728902553383548,0.7114,0.043955,0.05549036402836082,4.228400000000001,-110.87049999999999
0.0030525,0.003810675793084476,0.2864,0.014851500000000002,0.019946645081316307,1.3540999999999999,0.0045405,0.005929363372234831,0.4133,0.031809500000000004,0.04518276607291767,3.1711,-106.8415
0.0025980000000000005,0.003162514822099653,0.2575,0.017685,0.02478900966154154,1.4505,0.0049625,0.006082536477490292,0.3737,0.0354435,0.04768357631302417,3.1616000000000004,-95.6955
0.003044,0.0037634558586490687,0.25589999999999996,0.0106135,0.01306523057584519,0.8270000000000002,0.005538499999999999,0.006871953870625152,0.41630000000000006,0.0255255,0.03300000984848338,2.1008,-81.7035
0.0029975,0.0037687862767739957,0.2238,0.0049204999999999995,0.006583035014337991,0.49219999999999997,0.0037850000000000006,0.004902376974489008,0.35009999999999997,0.0102015,0.01567833696537997,1.2528,-67.7375
0.0017495,0.0021983516552180637,0.1792,0.0043625,0.005786860115814102,0.3767,0.0028175,0.0034813431316088337,0.31020000000000003,0.007624,0.01079406781524,1.0448,-53.18600000000001
0.002117,0.00293400749828626,0.1866,0.002902,0.0037596010426639687,0.30180000000000007,0.002418,0.003014979270243827,0.2783,0.005819000000000001,0.00894527808399493,0.748,-33.79
0.0023550000000000003,0.0030534734320114857,0.2343,0.004231,0.006044435457509659,0.42419999999999997,0.002502,0.0030817202987941652,0.2772,0.004751999999999999,0.006931630399841007,0.6537000000000001,-19.0795
0.0039705,0.005320145674697263,0.4113,0.006435,0.009683883518506405,0.6931999999999999,0.0025345000000000003,0.003305457608259407,0.2993,0.0033640000000000002,0.004776829492456267,0.3653,-12.093000000000002
0.0035265,0.004545607770144715,0.49970000000000003,0.008608,0.013507012993256504,1.0045,0.0025455,0.0031881264090371326,0.32389999999999997,0.0040065,0.005962411424918612,0.43620000000000003,-6.4225
0.0064164999999999995,0.008447996803976668,0.6886000000000001,0.0071730000000000006,0.010169405095677916,0.9478,0.0034755000000000003,0.004490963148368065,0.4216,0.003015,0.0040251956474188924,0.354,-4.3069999999999995
0.0045035,0.005991080870761135,0.6704,0.0085655,0.013495860476457216,1.0665,0.008248,0.01601725944099052,0.5557,0.003347,0.004801135282409776,0.3397,-3.4915
0.004327,0.005680105632820573,0.6368,0.007756,0.010781720641901273,1.0841000000000003,0.0026095000000000003,0.003287362164410852,0.3709,0.0031989999999999996,0.004331246933620848,0.34630000000000005,-3.1605000000000008
0.0043809999999999995,0.006067635453782635,0.6736000000000001,0.004743,0.007496919367313484,0.6026,0.0030325,0.0038627645540467515,0.35550000000000004,0.00256,0.0031661174962404662,0.2777,-3.1635000000000004
0.003072,0.004085816931777536,0.4818,0.006163000000000001,0.009436084993258593,0.8866,0.0025280000000000003,0.003498828375327947,0.3396,0.0029425000000000002,0.00397241110662026,0.3229000000000001,-3.1860000000000004
0.0037250000000000004,0.0056647418299513004,0.3184,0.004593000000000001,0.007449590592777566,0.6437999999999999,0.0022804999999999995,0.002983513029969871,0.2992,0.004525,0.0060898604253299595,0.5561,-3.4035
0.0017975000000000003,0.0026790576701519507,0.2405,0.0035154999999999995,0.0050677065818770526,0.4034,0.0023765,0.0030212000926784044,0.3052,0.008846999999999999,0.012456793327337496,1.1518,-5.7139999999999995
0.0017969999999999998,0.0022396205035675127,0.2133,0.0045520000000000005,0.005945897745504879,0.5316000000000001,0.013851999999999998,0.028551299445034022,0.6057,0.015063,0.018926021768982514,1.8992,-11.75
0.0031035000000000004,0.004081451947530438,0.2721,0.012823499999999998,0.015529837410610583,1.0887,0.012816,0.020259740867049607,0.49590000000000006,0.032085999999999996,0.04195018116766601,3.0664,-32.56
0.0023995,0.003021233191926767,0.2345,0.014440000000000001,0.017939478810712423,1.2807000000000002,0.01117,0.021568143174598965,0.6691,0.053707000000000005,0.06624308643171753,4.3832,-59.8235
0.0035450000000000004,0.004633529971846518,0.3813,0.030912000000000002,0.04130302531292351,2.9911000000000003,0.00577,0.007222804164588709,0.5494,0.100323,0.13344147706017048,8.882100000000001,-78.541
0.009427,0.013246086214425754,0.5927,0.040572,0.05717138095236112,4.9725,0.007271,0.008937628320757136,0.6911,0.09986650000000001,0.12982279287551934,10.1283,-96.1755
0.0081435,0.010022482227472394,0.8196999999999999,0.057806500000000004,0.06921900064288707,7.3759,0.011997,0.015487159197218835,1.324,0.11472049999999999,0.14930566650331795,12.306199999999999,-107.0995
0.0069845,0.00853804720061912,0.8336999999999999,0.05679,0.07288121088456202,7.0115,0.015445,0.01878485294060084,1.5917000000000001,0.11707200000000001,0.15128767068072665,13.3166,-108.76450000000001
0.0066549999999999995,0.008483265880543885,0.6944000000000001,0.0529335,0.06583113738953626,5.8591,0.013609500000000002,0.01757955204207434,1.3860999999999999,0.0897245,0.11373455477558261,10.434999999999999,-108.6135
0.0054805,0.007026489166006022,0.6366,0.0430335,0.05366334177070973,4.8361,0.0130035,0.016536192125153844,1.2783999999999998,0.085739,0.10620533979042673,8.7238,-108.0425
0.0046165,0.005784716933437625,0.5336000000000001,0.0374505,0.04829703665857772,4.412100000000001,0.011473,0.013813840885141251,1.0505,0.076561,0.09590972317757986,8.6899,-107.515
0.00528,0.006581040951095806,0.5828,0.047337500000000005,0.0593206359541096,4.8023,0.013276,0.016489851424436788,1.189,0.0973795,0.12071682960548624,9.392700000000001,-107.1235
0.003938,0.005084181350030701,0.46329999999999993,0.034025,0.04347740217630304,3.2307000000000006,0.010986500000000001,0.014155191627102758,1.0444,0.07424700000000001,0.09808275434550152,7.6411999999999995,-106.785
0.0024935,0.0032862668789981134,0.26780000000000004,0.013518,0.0188815359544715,1.2365,0.004935,0.006215681780786401,0.48050000000000004,0.0283995,0.03897010841658001,2.5985,-104.363
0.0029495,0.0034795904931471462,0.25780000000000003,0.016493999999999998,0.020661974736215317,1.3477999999999999,0.0052225,0.006229963884325494,0.4303,0.031566000000000004,0.04630825952246532,2.7977000000000007,-95.945
0.0031490000000000003,0.004508591797889891,0.26789999999999997,0.0142645,0.01858353437858364,1.0474999999999999,0.005041500000000001,0.006106386001556076,0.4202,0.0276385,0.036680492772044375,2.0146999999999995,-84.2255
0.002894,0.0036033040393505513,0.22459999999999997,0.0082015,0.01109134121736411,0.647,0.0051790000000000004,0.006168995055922804,0.4,0.014338000000000002,0.02036210941921293,1.2536,-72.6205
0.0030315000000000003,0.003800230256181854,0.22700000000000004,0.0072015000000000004,0.009160734140886308,0.5038,0.004387,0.00578388277889516,0.35230000000000006,0.010449000000000002,0.014284288571714028,1.2266,-57.438500000000005
0.0034475,0.006533433247535326,0.28770000000000007,0.0057245,0.008028558401107886,0.5318,0.005257499999999999,0.007017894983540293,0.37620000000000003,0.010772000000000002,0.016213713331621474,1.1904000000000001,-42.036
0.0041685,0.005996694923038857,0.2617,0.0030625,0.004660724192655043,0.4315,0.002018,0.0027071941193789555,0.26839999999999997,0.0038375,0.005258255414108371,0.5111,-28.866
0.0037255,0.00522371993889412,0.4173,0.006345999999999999,0.008972669613888611,0.7595999999999999,0.0030384999999999995,0.0037559219906702006,0.31700000000000006,0.0033485,0.004449263984076467,0.4426,-17.674
0.0050995,0.006405017564378727,0.6295999999999999,0.0072885,0.01181530998323785,1.034,0.003235,0.004075266862427539,0.3661,0.0034275,0.0045025603827155945,0.4195,-9.2255
0.004965,0.006410187204754632,0.8066,0.0046965,0.00679662048374043,0.6954,0.0032264999999999998,0.003990582664223359,0.41080000000000005,0.0027065000000000006,0.0034848457641623106,0.3537,-5.5625
0.0047765,0.006237319135654356,0.7289000000000001,0.007275,0.01013099698943791,1.0617,0.009877499999999999,0.01944868761639201,0.6793,0.0040685,0.005162765731659727,0.4434,-5.120500000000001
0.022624000000000005,0.02868245631043478,2.3617,0.006581999999999999,0.008507866947713745,0.6976,0.0140645,0.01781570234371915,1.3225,0.009129,0.013070436105960658,0.533,-20.2645
0.0329255,0.04109325674608913,4.1030999999999995,0.011328,0.013773456356339898,1.4048,0.028685000000000002,0.03393661444516822,2.9229,0.0344575,0.04776879682386819,1.6089,-7.7495
0.0435325,0.05603682494574438,5.1617,0.0101825,0.013316491655086936,1.6015000000000001,0.040288,0.05190767573297806,4.6183,0.012894000000000001,0.01730821770142726,1.0337,-5.1085
0.036158,0.04672540957551897,4.3825,0.010694500000000003,0.013758010393948684,1.5465,0.026145500000000002,0.03331473622888226,3.6586,0.0074075,0.009208509651403967,0.7153,-5.3
0.025721499999999998,0.03302995988492872,3.4075999999999995,0.007495000000000001,0.009994163296644697,1.1286,0.017496,0.02266949051037539,2.5561,0.0045555000000000005,0.005978440432085947,0.5792000000000002,-5.337
0.0291575,0.03679447988489578,3.6834,0.007846500000000001,0.010410252158329306,1.1658,0.021017,0.02786784527013167,2.9005,0.006962,0.00870816283724644,0.6492,-5.329
0.023847999999999998,0.030753003105387935,3.1732,0.0070745,0.00915821216177044,1.0947,0.018969,0.024110669837231813,2.6709,0.0048200000000000005,0.006143175074828976,0.5569999999999999,-5.3745
0.022005499999999997,0.02797146134902501,2.9572000000000003,0.006412500000000001,0.008346774826242768,1.0490000000000002,0.020798,0.027157555118235515,2.6052999999999997,0.0067945,0.011748465857293878,0.6085,-5.354
0.0257505,0.03161552862123295,3.3273,0.007483999999999999,0.00998890384376584,1.1799,0.0158625,0.0199426440072524,2.1664,0.0049395,0.005975847220269274,0.5771,-5.41
0.020532500000000002,0.02591227218906131,2.4729,0.006513500000000001,0.00847051651317675,0.9979,0.016207,0.021658310183391503,2.2500999999999998,0.0041425,0.005181703387883177,0.5306,-5.433
0.020895,0.026860584505926148,2.621,0.006570499999999999,0.008425452510102944,1.0037000000000003,0.014658500000000001,0.020289661160305266,1.8719000000000001,0.0231815,0.052073993029150355,1.7185000000000001,-5.520499999999999
0.020412500000000004,0.028317740905658417,2.5369,0.0055615000000000005,0.007319538919904723,0.7978000000000001,0.014895499999999999,0.019081138592861802,1.9947000000000004,0.019652500000000003,0.0334320557250074,1.5082,-5.7335
0.014651,0.01975744416669322,2.0403999999999995,0.0042595,0.005613897932809252,0.6884999999999999,0.010049,0.013282443299333146,1.3774000000000002,0.0076324999999999995,0.00993931838709275,0.5246000000000002,-5.9955
0.012090999999999998,0.01635901586282011,1.5559000000000003,0.0038470000000000006,0.004977830852891649,0.5669,0.011740500000000001,0.01642823331950213,1.3639999999999999,0.014974500000000002,0.01859971639568733,0.6184000000000001,-6.6925
0.014142000000000002,0.0187438123123339,1.337,0.0035255000000000004,0.00476549577693654,0.5041000000000001,0.0117305,0.014980372158260957,1.299,0.037949000000000004,0.05141085196726465,1.9953999999999998,-10.001499999999998
0.0211815,0.030043199729722532,2.5095,0.002424,0.0031827032535252167,0.317,0.009852000000000001,0.012398463614496757,1.0252000000000001,0.018685999999999998,0.0247905284332545,0.7426000000000001,-15.5245
0.032616,0.045890168881798636,4.7362,0.0021515,0.002701101627114389,0.279,0.009216,0.011008460382814665,0.8835999999999999,0.0022505000000000003,0.0028786541994480683,0.24500000000000002,-24.044
0.024317500000000002,0.03492205392012331,3.6914,0.0014900000000000002,0.0018763528452825711,0.1949,0.0090375,0.014834940175140579,0.7734000000000001,0.001608,0.001959642824598401,0.19240000000000002,-33.6045
0.014933499999999999,0.02446934715107863,1.9662,0.0016095,0.002031760320510271,0.1931,0.0063765,0.008170492641205914,0.45140000000000013,0.001792,0.0022286543024883873,0.1891,-45.229
0.011916,0.015194130445668814,1.3,0.001555,0.00192566871501824,0.21090000000000003,0.005899,0.00732871748670939,0.3654,0.0015515000000000001,0.0019477294473309171,0.1757,-59.265499999999996
0.009148,0.014474325545599697,0.9637000000000001,0.0014589999999999998,0.0018384776310850235,0.1724,0.005165500000000001,0.007364988119474464,0.4094,0.0017684999999999999,0.002150081393808151,0.1624,-72.78699999999999
0.0045765,0.005902224157044529,0.37449999999999994,0.0015525,0.0019650826954609314,0.17830000000000001,0.007101,0.009434611809714272,0.4415,0.002177,0.0027100369001177827,0.21859999999999996,-80.26950000000001
0.0029270000000000003,0.0036079634144486556,0.2238,0.0014754999999999998,0.001925993250247778,0.1537,0.0035930000000000003,0.004441857719468286,0.3403,0.0017330000000000002,0.0021608563117431014,0.1953,-79.46849999999999
0.0019169999999999999,0.00238214189333885,0.18209999999999998,0.001313,0.0016148374531202822,0.16899999999999998,0.003644,0.004961713413731188,0.31310000000000004,0.0014834999999999998,0.0018540900733243788,0.19389999999999996,-78.90299999999999
0.001482,0.0019283671849520776,0.1922,0.0013279999999999998,0.001656019323558756,0.16959999999999997,0.0016785,0.002260232288947311,0.2242,0.001548,0.0019348126524291699,0.1709,-78.8465
0.0068995,0.009528711875169696,0.8208,0.001451,0.0018372533848111426,0.17790000000000003,0.0028285,0.0037154878549121918,0.3286,0.0016105,0.001993451780204377,0.173,-78.9645
0.016972,0.023527543433176357,1.8933999999999997,0.001431,0.001769378421932403,0.19730000000000003,0.0033535000000000006,0.004523389216063548,0.4195,0.0016774999999999995,0.0020909686750403508,0.2052,-78.2185
0.041762499999999994,0.05259869057305514,4.8803,0.001758,0.0021838727069131117,0.2419,0.00724,0.01020642444737627,0.764,0.0016894999999999998,0.0020622439234969274,0.19469999999999998,-69.4
0.0447065,0.058168320845628674,5.526800000000001,0.0018694999999999999,0.002414839539182676,0.23109999999999997,0.0087785,0.011291910821468616,0.8144,0.0018069999999999998,0.002309870126219221,0.2333,-47.423
0.0223095,0.02799591309459293,2.6856999999999998,0.004154,0.005217393985506557,0.46179999999999993,0.008614499999999999,0.010831613453221084,0.8746,0.008321,0.013980990665900611,0.5474,-27.401500000000002
0.025519499999999997,0.03296094886376908,3.0656999999999996,0.007098999999999999,0.009094553315034226,0.8942,0.014745,0.019190706083935524,1.6219999999999999,0.0218315,0.03421046404245344,1.1733,-12.6805
0.034251,0.043330840056477096,4.1474,0.010447000000000001,0.01379714463213313,1.4517,0.028946500000000003,0.03656750811854699,3.109,0.022001499999999997,0.026895814730176885,1.1423999999999999,-5.849
0.03925700000000001,0.048504515253736946,4.073,0.010959000000000002,0.013956597006433912,1.6151,0.0333915,0.04161438873755086,3.8076000000000008,0.0101325,0.013299031919654904,0.8629,-5.452999999999999
0.032303,0.04015420525922534,4.1015999999999995,0.006642,0.008480902074661635,1.0891,0.025789,0.0338306074435562,3.0348,0.006825,0.008931466844813342,0.6063000000000001,-5.4985
0.025766999999999998,0.0337452352192128,3.3076,0.007331000000000001,0.009742407300046534,1.0612,0.021500500000000002,0.027990476058831155,2.7582000000000004,0.005881000000000001,0.008078830360887645,0.6406000000000001,-5.535
0.022674000000000003,0.028985768922007226,3.3011999999999997,0.008204,0.010706512037073512,1.1638000000000002,0.016416,0.020683239591514673,2.287,0.007127,0.009477177849972006,0.6614,-5.591500000000001
0.0240625,0.03120439312020024,2.7358,0.0061635,0.008358585406634306,0.9377,0.01939,0.02585137713933244,2.3118,0.004096,0.005033020961609439,0.5042,-5.62
0.019115,0.023933282265497978,2.6935000000000007,0.006630499999999999,0.008968207736220209,0.9981,0.0141055,0.018603409633720373,1.7442,0.007474000000000001,0.009890551046326993,0.5951000000000001,-5.7335
0.0248125,0.03308486134170733,3.1977,0.006487499999999999,0.00835171539266036,0.9348999999999998,0.0140495,0.018430660595865792,2.1210999999999998,0.023003,0.05262583396013786,1.395,-5.898
0.021204,0.03029461503303846,3.1578999999999997,0.005360500000000001,0.00687439815547514,0.8925000000000001,0.016821000000000003,0.02227925716894529,2.2969,0.0038540000000000002,0.005085951238460707,0.4736,-5.888
0.020156,0.025483296490054028,2.6901,0.00623,0.008352269152751245,0.9312,0.015875,0.02045770514989401,2.0999000000000003,0.010196499999999999,0.014653243668212168,0.6469,-5.9095
0.021185999999999997,0.027988490491628874,2.8839,0.00572,0.007378800715563471,0.9288,0.012744499999999999,0.015653288791816242,1.6828000000000003,0.006189,0.007603545225748315,0.48660000000000003,-5.983
0.0206495,0.02808809445298844,2.7299999999999995,0.005442,0.0071993471926279536,0.7866000000000001,0.011763500000000003,0.014448053502115778,1.5068000000000001,0.0044335,0.005590773649505048,0.5022,-6.024500000000001
0.021082999999999998,0.02803048875777945,3.3918,0.0043335,0.005686022335517159,0.7249999999999999,0.014285,0.018423191905856055,1.9772,0.005389499999999999,0.006835404157765655,0.45230000000000004,-6.127999999999999
0.022470499999999997,0.027738039764914894,2.8228999999999997,0.005506,0.007526978145311703,0.8566,0.015857500000000004,0.019986011357947336,2.0165,0.0036725000000000004,0.004726843555693376,0.5065,-6.1995000000000005
0.020989500000000005,0.02732393181809675,2.9590000000000005,0.0057905,0.007755743033391449,0.8307,0.012614499999999999,0.016468444067367142,1.6221,0.0044225,0.005578839485054217,0.5049,-6.191500000000001
0.020397500000000002,0.027520584114440593,3.066,0.0049655,0.006415804704010246,0.7218,0.013614999999999999,0.016818311449131866,1.6393,0.0033630000000000005,0.004211472426598565,0.4065,-6.226500000000001
0.022770000000000002,0.028228131358628752,2.8604000000000003,0.005121500000000001,0.007119287183419419,0.8397000000000001,0.013072000000000002,0.01766034824118709,1.7108,0.0037495000000000002,0.004809443834790048,0.45210000000000006,-6.2935
0.018213,0.02445728930196476,2.5612000000000004,0.006088,0.00750010666590816,0.7835,0.013569,0.016886592314614576,1.6354,0.0037275000000000003,0.0048098700606149436,0.38680000000000003,-6.415
0.014480999999999999,0.018298489008658613,1.8197,0.004881,0.0065537775366577705,0.7053999999999999,0.0115525,0.01520517510586445,1.5223,0.0046975,0.006811552686429138,0.44079999999999997,-6.523499999999999
0.0112755,0.01707571228382582,1.4531,0.0034915,0.004924301980991824,0.48009999999999997,0.0086545,0.011402436143210801,1.2354,0.038676999999999996,0.05431037930267105,2.3582,-7.475499999999999
0.015429,0.019829306594028952,1.7752,0.0029720000000000002,0.003989260583115623,0.4509000000000001,0.010965500000000001,0.013720118439722012,1.1697000000000002,0.025312,0.03425540833211597,1.4797999999999998,-10.99
0.045473,0.06355461116236964,6.5304,0.0021475,0.0026886892717456214,0.2802,0.0092845,0.012284602150659988,1.0751,0.020732,0.031018832989008465,0.8096000000000001,-17.192500000000003
0.031487,0.04169558969483463,4.28,0.001774,0.0022726196338146865,0.2526,0.009435,0.011256908989593901,0.7000000000000001,0.0038305,0.005359976679053744,0.27849999999999997,-27.236
0.021978499999999998,0.03040205667385021,3.0846000000000005,0.0014990000000000001,0.0018309560344257313,0.2094,0.0062235,0.009116635892696383,0.6085,0.0022585,0.0028744825621318353,0.1891,-38.335499999999996
0.0193345,0.028364915829242294,2.3652,0.0016395,0.0020285832494625405,0.1879,0.0046555,0.005881007566735483,0.3619,0.0014854999999999998,0.0019623327954248738,0.20500000000000002,-52.593999999999994
0.010334000000000001,0.016735253209915885,0.9649,0.0017485,0.0021459380233361824,0.2112,0.006862999999999999,0.009859781944850505,0.5215000000000001,0.0021115,0.0024989697877325365,0.19929999999999998,-67.686
0.005950500000000001,0.008127782600439065,0.5733999999999999,0.0016975000000000002,0.0022191777756637708,0.1822,0.0054940000000000015,0.007207627903825225,0.46089999999999987,0.0022964999999999995,0.0029743822888122504,0.20090000000000002,-78.4025
0.007092,0.009985294186953132,0.3406,0.001451,0.00174696880338488,0.175,0.0034295,0.004347706291827911,0.3472,0.002141,0.002703127817917606,0.2,-81.9305
0.0029325,0.004594088592963788,0.2851,0.0013865,0.0016631446118723413,0.17729999999999999,0.002267,0.002967052409378709,0.281,0.0015395,0.0019324983829229975,0.18059999999999998,-80.58449999999999
0.001599,0.0020516822366048793,0.20539999999999997,0.001191,0.0015059548466006543,0.15910000000000002,0.0024214999999999996,0.00308263685827572,0.27849999999999997,0.0014284999999999999,0.0017715388790540273,0.17480000000000004,-79.87599999999999
0.0034095,0.005383535083938806,0.3193,0.0012334999999999998,0.0015475302904951489,0.1723,0.0027795000000000003,0.003655755735822622,0.3016,0.001566,0.0019479989733056844,0.1876,-79.9125
0.0122735,0.019648851111451784,1.173,0.0012504999999999999,0.0015476595232802337,0.1708,0.003569,0.004658680070577932,0.3882,0.0015444999999999999,0.0018695587714752378,0.16499999999999998,-80.39
0.0261655,0.035043978798076,2.7323000000000004,0.0015684999999999998,0.0020090669476152357,0.2034,0.005524,0.007596986244557772,0.5261,0.001729,0.0021181831837685807,0.2057,-79.1195
0.0387425,0.049127838849271604,4.6238,0.001812,0.002339187893265524,0.21639999999999998,0.008005,0.010326131899215699,0.8244,0.0017525,0.0022804933676728815,0.2098,-64.60300000000001
0.06003,0.07684430883286023,7.670299999999999,0.0022815,0.002902938166754504,0.2755,0.0101345,0.01303991372670847,0.9704999999999999,0.00252,0.003526258640542409,0.2725,-41.7725
0.026057,0.042869451827612634,3.6498999999999997,0.004893499999999999,0.006034985501225334,0.5432000000000001,0.0127,0.016748471572056955,1.2038,0.0234015,0.03406413436446023,0.9021,-22.238000000000003
0.025286,0.03329180980361386,3.5157,0.007657499999999999,0.00984113052448752,0.9946999999999999,0.0194965,0.026711352455463577,2.1262999999999996,0.029875500000000003,0.03768435152686059,1.3306,-9.329
0.038493,0.05139447441116603,4.9523,0.010985499999999999,0.013353450864851377,1.5370999999999997,0.0267875,0.03480707327541343,3.5728,0.014047,0.01721505155380024,0.9743,-5.1739999999999995
0.0332425,0.04333415454350067,4.763,0.008874,0.011178322772223033,1.4073000000000002,0.0284735,0.03532101428328468,3.4800000000000004,0.006477999999999999,0.008173799606058373,0.6998,-5.045
0.0301025,0.036863040433474825,3.884800000000001,0.0072565,0.010954777496599372,1.1056000000000001,0.022960500000000002,0.028774499995655876,2.8024000000000004,0.006128,0.007958976064796274,0.6707,-5.038
0.0322635,0.045549783204753024,4.5364,0.0078115,0.00974936664609553,1.0768,0.021035999999999996,0.027373309993495493,2.6418000000000004,0.005528,0.006921972262296346,0.6558,-5.201500000000001
0.031721000000000006,0.03966107285487875,4.426499999999999,0.0062435,0.00806837344202659,0.9798,0.0190445,0.024632438977900666,2.4534000000000002,0.0050019999999999995,0.0062517837454601705,0.5793999999999999,-5.188000000000001
0.028367999999999997,0.037386147167099204,3.9623000000000004,0.007042999999999999,0.00974453693101935,1.0332999999999999,0.017806000000000002,0.02195230511814192,2.3514,0.005063,0.0064178734795880795,0.6412,-5.304499999999999
0.0189565,0.024533547440188912,2.5090000000000003,0.00565,0.0071139159399025795,0.8273,0.0151705,0.019634850394133388,1.9613999999999998,0.0072745,0.011484200015673709,0.6650999999999999,-5.399
0.012744499999999999,0.016668156766721388,1.5566,0.004171,0.005266488393607262,0.5663,0.010985,0.014099195012482095,1.3519,0.035824999999999996,0.06920150937660247,2.4325,-6.483499999999999
0.014997,0.021025277643826727,1.6851,0.0035235000000000006,0.004312881867151012,0.4416,0.010209000000000001,0.013342728356674282,1.2165000000000001,0.0541765,0.07181574235500181,2.5296,-10.1545
0.038776000000000005,0.051168459034839034,5.5447,0.002289,0.0028770992336031786,0.2844,0.009368,0.011790279894896474,0.9722000000000001,0.014714,0.01923483818491853,0.7563,-17.430999999999997
0.031835,0.044568602176868866,4.8217,0.00167,0.002066712365086153,0.2381,0.0117335,0.017809229348851676,0.9472999999999999,0.008431000000000001,0.014649556307274292,0.3349,-30.225
0.0186275,0.028709445309862743,2.5745,0.0014329999999999998,0.001807788704467422,0.1936,0.005072000000000001,0.006662702154531597,0.4791000000000001,0.002067,0.0026569155048664986,0.20659999999999998,-43.899499999999996
0.014227499999999999,0.01907517627703608,1.5301,0.0014674999999999998,0.00182352680265468,0.18589999999999998,0.005625500000000001,0.008672459282118308,0.5285,0.00161,0.002025438224187546,0.17800000000000002,-57.794
0.0101545,0.014726613663704227,1.0385,0.001675,0.002056623446331389,0.21449999999999997,0.0066185,0.009896734309862015,0.4639000000000001,0.0017375000000000001,0.0022228022854046195,0.2218,-71.622
0.004246500000000001,0.005766337659207966,0.381,0.00272,0.0039325055626152645,0.22349999999999998,0.0048925,0.0064731020384356675,0.3798,0.0048270000000000006,0.00832604347814735,0.3539,-81.226
0.003924500000000001,0.005128445183483977,0.33209999999999995,0.0014035,0.0016805207526240191,0.1626,0.0031119999999999997,0.00440565545634245,0.3188,0.0018075000000000003,0.002262598064173131,0.19480000000000003,-81.6485
0.037081,0.04559246757963425,1.3734,0.025602,0.03980562397450893,3.7529,0.0618605,0.0878627614521647,1.8441,0.0142635,0.018453662238157496,0.8045,1.0204999999999997
0.11459299999999999,0.1966885914332603,4.7583,0.0049645,0.006367578032501839,0.5425,0.076546,0.14976842490992553,3.0315999999999996,0.0132445,0.01755696585404209,1.314,10.2935
0.136988,0.19256004570003613,4.2032,0.009757000000000002,0.014544504116675823,0.4444,0.122777,0.17857955146096655,4.6583,0.0294135,0.03887483054625447,1.0632000000000001,43.608999999999995
0.091777,0.1335605555544001,3.0025999999999997,0.0241735,0.039173993286362827,3.1879999999999993,0.06634549999999999,0.09947407978966179,3.0244999999999997,0.0359,0.05324071750080008,4.7561,9.411999999999999
0.21417000000000003,0.26328458709161084,7.520300000000001,0.034837,0.051816220433373944,4.5982,0.1761825,0.21731991889838354,6.398100000000001,0.0372845,0.05709510705831104,4.7837000000000005,6.623499999999999
0.06357900000000001,0.08709446021418354,1.8674,0.0295995,0.04746259105864323,4.112599999999999,0.1179345,0.17857921533593993,3.7935,0.0210465,0.032416135642608604,1.5333999999999999,2.6254999999999997
0.080276,0.09856395284281165,2.8145,0.02017,0.03564232455943355,2.3786,0.10969199999999998,0.14471466719030243,3.0675999999999997,0.008388,0.012102776540942993,1.0557999999999998,2.6085000000000003
0.130434,0.15489195976550882,3.8737,0.011997,0.01754141385407687,0.5257000000000001,0.20422249999999997,0.30673793823066625,9.927100000000001,0.0360665,0.05170844853599845,1.5952,30.914499999999997
0.05463900000000001,0.06935945213163092,2.4946,0.013651499999999999,0.02438207845939308,1.2611999999999997,0.041131,0.05486018683890896,1.3449,0.017633,0.02847521553913157,1.7554,32.1225
0.2390905,0.31148475219503124,7.239199999999999,0.0484995,0.06989326898922385,6.161499999999998,0.1357635,0.18472977412967298,6.7966,0.028638499999999997,0.04275321449902919,3.9497,1.5975
0.153686,0.19774733449530996,4.8856,0.0293945,0.04574600911555018,4.007000000000001,0.1636815,0.2243320334905383,5.819100000000001,0.014637,0.019206649890077136,1.5301,5.223499999999999
0.055478999999999994,0.07646764675338191,2.7079999999999993,0.0228815,0.035298145135403365,2.5797,0.180939,0.24198663165555243,5.9171,0.0077345,0.01058638040125141,0.7524000000000002,0.8434999999999999
0.061015999999999994,0.07602697021452322,2.4974999999999996,0.00965,0.013376864356043985,0.8256000000000001,0.0992595,0.19333111169700545,4.4994,0.017391999999999998,0.025170897878303827,1.8901000000000001,8.953500000000002
0.13499199999999997,0.1773086185158522,4.322900000000001,0.009476,0.013212111867525191,0.4961000000000001,0.24333550000000004,0.34556508815272413,8.531699999999999,0.0256195,0.033211444563583804,1.2187999999999999,43.468999999999994
0.14636500000000002,0.24190483480079517,4.3302,0.020405999999999994,0.031637822301795675,2.3861,0.0642945,0.0952179392236568,3.0107,0.027565999999999997,0.04461021071458865,3.7232,12.038
0.177988,0.2331371433298435,7.481200000000001,0.040885000000000005,0.06225606155226975,5.585100000000001,0.24861,0.3490705921443398,10.0317,0.0210345,0.031294669673923706,2.6677999999999997,6.769
0.125519,0.2034342911114053,4.5284,0.023374000000000002,0.03931096030371174,2.6369,0.14326350000000002,0.2227719738880993,5.15,0.017048999999999998,0.025632471593664156,0.9661,3.1695000000000007
0.050971999999999996,0.0652908845092483,1.846,0.00878,0.015073174848053743,0.8881,0.1036965,0.14402174714257565,3.0969999999999995,0.0071675,0.009294732379148955,0.5569,1.1085
0.08661999999999999,0.12636473796118916,3.4611,0.014791,0.01857181466631627,0.9404000000000001,0.23169649999999997,0.3052639142610865,8.5793,0.032600000000000004,0.044818585430600105,2.8822,21.2885
0.07487450000000001,0.09933941236991489,2.3971,0.011025499999999999,0.022971085085385062,1.2222,0.11374749999999999,0.19283350473919206,4.0553,0.02423,0.03535461638881123,1.5599000000000003,38.35900000000001
0.1151915,0.19056905349505202,3.9907,0.04284750000000001,0.06386395814542033,5.0787,0.07419100000000001,0.10029304263008476,2.9953000000000003,0.029932000000000004,0.04447877696160271,4.255599999999999,5.2195
0.2469795,0.31382322117714617,8.128400000000001,0.0108695,0.017321193665564737,1.2071999999999998,0.2365195,0.30044083252780407,7.2646999999999995,0.017308499999999997,0.02407972279740778,1.5643,5.7835
0.055330000000000004,0.0742571929175888,2.3268,0.0091825,0.018674754349120633,1.1009,0.11716049999999999,0.16198774814781516,3.9095000000000004,0.022431999999999997,0.03851627058789571,1.06,3.4485
0.045117000000000004,0.05759082565825915,1.605,0.028538500000000005,0.047639977434923285,3.8491,0.217115,0.3226448917928192,6.1165,0.005253,0.006402601033954872,0.4284,3.1735
0.016336,0.02117610209646714,0.5806,0.017451,0.027255371947562924,1.7694,0.077848,0.11940267961817273,2.4318,0.014898,0.019938891644221354,1.4479,8.739
0.0539245,0.06612205872475538,2.8593,0.016762,0.0359767244201025,1.8531000000000002,0.3310365,0.4626842221753407,9.595099999999999,0.0068555,0.009395437722639642,0.3136,19.25
0.0712415,0.0883839988346307,2.7866,0.053758999999999994,0.07729740163808872,7.5571,0.033482000000000005,0.04864087684242545,1.6601,0.009886,0.015235757283443445,1.1084,9.431
0.11158950000000001,0.17180561093864194,3.9947999999999997,0.043099000000000005,0.058699384153498575,6.2739,0.2792775,0.3839322018924695,7.812099999999999,0.0178565,0.03292656905904409,1.3262,3.3465
0.018615000000000003,0.02319889652548155,1.0569,0.033124,0.049263298712124426,5.0283,0.048623,0.06260135701404564,2.1346000000000003,0.02351,0.034818856959986495,1.5410000000000004,2.16
0.03318600000000001,0.042757080115461574,1.0652,0.024293500000000003,0.03448226863186353,3.0383999999999998,0.15451649999999997,0.2461593474763857,4.6659,0.009048,0.011273566427710444,0.6955,3.6045
0.060044999999999994,0.08165185852140783,2.3084000000000002,0.014836000000000002,0.022370194456016693,1.2065000000000001,0.06719599999999999,0.10582884956381224,2.1456999999999997,0.0194365,0.02745243613962156,1.6560000000000001,10.916500000000001
0.04993600000000001,0.059478544871239075,1.5817,0.0199735,0.03739613549552948,0.6284000000000001,0.21386,0.32040438651803754,6.343800000000001,0.035014500000000004,0.04527194329825041,1.016,43.4735
0.061943,0.0954577875293577,2.4313000000000002,0.019059500000000004,0.032593958796071396,2.2281,0.042965,0.054257162660795305,1.9554,0.024530000000000003,0.03643615923776819,3.1853000000000002,16.9985
0.110943,0.14029697323891205,4.4590000000000005,0.043427,0.06223083962152528,6.471400000000001,0.116678,0.14569988400818995,4.495600000000001,0.022031000000000002,0.03118952708843146,3.0985999999999994,4.2379999999999995
0.1440765,0.1730826047007613,4.5152,0.012219,0.021353728011754763,1.5803000000000003,0.23098399999999997,0.31417340243884423,6.809800000000001,0.0256595,0.04267802068981175,1.1794000000000002,2.4545
0.054671500000000005,0.06679828104075733,1.7529000000000001,0.007771,0.011232435176754861,0.7211,0.11935699999999999,0.20014057759484957,3.5282,0.008128999999999999,0.010690841875175218,0.4273,1.0659999999999998
0.1416395,0.17122119480368078,4.589500000000001,0.010208499999999999,0.013518981100659917,0.6988,0.15057650000000003,0.23820327569116256,6.3233,0.0264765,0.037338081766475364,1.7573999999999999,17.451
0.1027245,0.14492945991067516,3.0673000000000004,0.014041000000000001,0.025005325432795312,0.6656000000000001,0.217277,0.3723408872256712,7.897399999999999,0.048538000000000005,0.0625873629417313,1.0977999999999999,45.4725
0.072212,0.10285113319745194,2.6031,0.041126,0.06202443550730632,5.3167,0.07407049999999998,0.10356869821524263,3.5134999999999996,0.035128,0.05200619770758096,5.0593,7.091
0.16400199999999998,0.19241785104298403,6.583,0.0316375,0.05029338375969547,4.5286,0.19649749999999996,0.29558206077162397,7.829300000000001,0.023506999999999997,0.04011029543645871,1.8318,7.216
0.05609449999999999,0.08002243654126011,1.8659,0.016356,0.028547341382342422,2.2668999999999997,0.11428750000000001,0.16765620731127134,3.7439999999999998,0.023036499999999998,0.03770879141526549,1.0366,2.513
0.046910499999999994,0.0659419073882459,2.0416999999999996,0.0111485,0.019936161867320397,1.154,0.1658025,0.26924905654430803,4.3887,0.008022,0.01163278986314117,0.5969,2.7685000000000004
0.16970400000000002,0.20673036859639177,5.559699999999999,0.018089,0.029446157644079814,0.8392999999999999,0.18760449999999998,0.24253378331688144,7.256399999999999,0.031747,0.0425873255793317,1.5625999999999998,32.72200000000001
0.053359500000000004,0.08874060485482392,2.4794,0.014207000000000001,0.022348794150915615,1.2715,0.0541095,0.06865892622230557,2.1572,0.028939000000000003,0.038164086521230926,1.6710000000000003,32.611999999999995
0.137292,0.1854212832983312,4.7158,0.0431265,0.06944451130219004,5.8954,0.093672,0.12664557512996655,4.2857,0.030968,0.04836617102893302,4.4313,3.9404999999999997
0.34868049999999995,0.48919554970379686,11.523499999999999,0.027235,0.04658025762058428,3.4602000000000004,0.23210699999999998,0.37192278997125194,7.756,0.0252665,0.04035433124213558,1.2266,7.179999999999999
0.08654450000000001,0.1080124990452494,3.8824000000000005,0.0169665,0.024759817244882888,1.8973000000000004,0.180622,0.23817024457307842,5.8881000000000006,0.0071225,0.008648378460728925,0.48330000000000006,2.2765
0.0845005,0.10249693580785721,3.0387,0.008903,0.013713781389536585,0.9635,0.04985300000000001,0.08975342778969503,2.2891000000000004,0.020229999999999998,0.033052579324464225,2.1569,5.562
0.214837,0.2721352343964302,6.6850000000000005,0.011506,0.014734062576221129,0.5353,0.2746395,0.3736517312284261,8.7624,0.055449,0.07256559101943566,2.0118,39.3095
0.084665,0.12159483829505265,2.9417,0.0161985,0.02637563174598857,1.6734,0.0317125,0.045594154778874886,1.7941000000000003,0.030699500000000005,0.044054524739236496,2.8317999999999994,26.4865
0.149782,0.2004170988214329,5.3713999999999995,0.04258850000000001,0.06184233703539995,6.1668,0.0946995,0.12707558085643364,4.0085999999999995,0.029812500000000002,0.04194752853267997,3.7868999999999997,3.7935
0.247739,0.35907610794927586,9.345000000000002,0.013611499999999999,0.023915077879864827,1.6648999999999998,0.09942500000000001,0.15502028447916097,3.8658,0.021556,0.032179931634483,1.1835,4.508500000000001
0.04947800000000001,0.06511730491966018,2.6059,0.009638500000000001,0.014507134451710304,0.8685,0.245737,0.31536016251264204,7.4428,0.009358,0.012141507319933551,0.45330000000000004,1.1725
0.0809825,0.10331458633707052,4.264200000000001,0.012156,0.019111760777071277,1.5366000000000002,0.11705499999999999,0.20688599904295119,3.6107,0.02635,0.04030437321184886,3.1224,5.6785000000000005
0.142488,0.18220212978996708,5.3334,0.02053,0.03048797467855154,1.1369,0.2168325,0.32455268131691656,7.0129,0.0461005,0.06484966653730766,2.3716999999999997,39.597
0.005235999999999999,0.010436431382421866,0.5965,0.001658,0.0022658552469211266,0.19249999999999998,0.0026145,0.0032371824168557443,0.25839999999999996,0.001772,0.0022878811157925143,0.2049,88.17299999999999
0.009287,0.014748206670643044,0.9183000000000001,0.0027045000000000003,0.004479603777121365,0.2629,0.0029065,0.0038392251822470637,0.2963,0.005565,0.014044838909720539,0.5177,88.2245
0.0025285000000000004,0.0033496343083984554,0.26859999999999995,0.0010985,0.0013715137622349986,0.14129999999999998,0.0041065,0.004861023554767041,0.2233,0.0011849999999999999,0.0014094325099131212,0.14130000000000004,87.666
0.011658,0.03349337845007577,1.0943,0.0011255,0.0014722262054453453,0.1474,0.0028039999999999996,0.003722391704267567,0.22970000000000002,0.0009379999999999999,0.0011362218093312593,0.1446,86.03099999999999
0.0013394999999999998,0.0016359248148982886,0.15080000000000002,0.001165,0.0014541664278891878,0.14679999999999999,0.0016295,0.0020358413494179746,0.211,0.0010134999999999999,0.0012305892897307373,0.12710000000000002,85.62600000000002
0.005495,0.013174285559376647,0.4512,0.001041,0.0012850291825480076,0.14329999999999998,0.001605,0.002006090725764914,0.2033,0.0009435,0.00112523330914082,0.1446,85.3635
0.0032325000000000006,0.0064099024953582565,0.35710000000000003,0.0012374999999999999,0.0014992831620477835,0.15560000000000002,0.0014290000000000004,0.0017493998971075766,0.2169,0.0009989999999999999,0.0012575372757894696,0.14849999999999997,84.8815
0.0049565,0.013748910865955892,0.5393,0.0009739999999999998,0.0011802542099056458,0.15550000000000003,0.0016489999999999999,0.0020301477778723403,0.22249999999999998,0.0008185000000000001,0.0009886607102540287,0.1357,84.53
0.013596500000000001,0.022487510978318612,1.314,0.001163,0.0014404513181638596,0.1588,0.0029419999999999997,0.004111739291346182,0.2847,0.0010705,0.0013063116014182836,0.1778,84.4135
0.019784,0.02676827226400688,1.8131999999999997,0.0011615,0.0014502241206103283,0.1528,0.004885,0.006353203916135543,0.3188,0.0010394999999999998,0.0013116592545322128,0.16659999999999997,85.08
0.0224425,0.029054291421406232,2.3479,0.0013765,0.0016654578949946467,0.17470000000000002,0.006963,0.008652589207861425,0.396,0.001134,0.0013310146505579872,0.15059999999999998,78.0195
0.0334015,0.04474248372631989,3.8942999999999994,0.0011895,0.0014249035055048467,0.1637,0.008688000000000001,0.011222847232320326,0.5908000000000001,0.0010565,0.0012912590754763351,0.17420000000000002,51.8865
0.05664899999999999,0.07445900952873331,6.7355,0.001476,0.0018266909974048705,0.19240000000000002,0.0109815,0.013165547842759905,0.8057999999999998,0.0014884999999999998,0.001841018739719941,0.19129999999999997,32.8285
0.043694000000000004,0.06518489548967614,5.9068000000000005,0.002378,0.0030104318627067446,0.3014,0.014531999999999998,0.0176380015874815,1.2671000000000001,0.001925,0.0024319745064453288,0.2777,16.9795
0.047110000000000006,0.06565023229204905,6.5802,0.004359,0.005977666768899049,0.47309999999999997,0.0164605,0.019505062163448748,1.3406000000000002,0.0037975000000000005,0.004619074582640986,0.3215,7.154
0.0639055,0.089926200019794,8.5274,0.005121,0.0066458708985354204,0.5019000000000001,0.0182135,0.023520105229356436,1.9021,0.0042175,0.005338337756268331,0.38839999999999997,4.978000000000001
0.056610999999999995,0.0831228987704351,7.540700000000001,0.0051400000000000005,0.006521372554915108,0.4858,0.0216465,0.031188840151567032,2.4264,0.00419,0.005137470194560743,0.37670000000000003,4.328
0.057451999999999996,0.08761245687686198,7.961600000000002,0.0052745,0.006699869401712245,0.5856000000000001,0.020269000000000002,0.02554762611281134,2.3735000000000004,0.0041315,0.005266607067173324,0.41890000000000005,3.4105000000000003
0.052969999999999996,0.07852155754950356,7.591,0.0039629999999999995,0.00504801941359183,0.4877000000000001,0.020043000000000002,0.025430815952304796,2.1681,0.0029655,0.00376995358061608,0.3645,2.7165000000000004
0.0454605,0.066164732675346,6.437900000000001,0.0034515000000000006,0.004688192615496935,0.45830000000000004,0.0215345,0.029194916509556933,2.3884000000000003,0.0027970000000000004,0.0035294192156784094,0.3378,2.8275
0.053221,0.07794192260908119,6.985899999999999,0.003822,0.0049747462246832255,0.47690000000000005,0.018993000000000003,0.02512547710989783,2.2287999999999997,0.0029154999999999997,0.003939968273983942,0.3307,2.9515
0.062696,0.0877039765347045,8.2168,0.0032925,0.004290798294024085,0.44020000000000004,0.020112500000000005,0.02606591356542103,2.1887000000000003,0.0025224999999999996,0.0032701299668361807,0.3077,2.927
0.051303,0.08006010367217868,6.9224,0.0034155,0.004356483673790136,0.4427,0.0166045,0.02207581142336562,2.0474000000000006,0.0024705,0.003133663989645348,0.33199999999999996,2.889
0.053788,0.08205912136990014,7.3954,0.0029549999999999997,0.003939898475849346,0.3782,0.0152675,0.020627075653131252,2.0227000000000004,0.0021839999999999997,0.002772832486826422,0.2661,2.9920000000000004
0.039051499999999996,0.05701236313292057,5.213900000000001,0.0026455000000000003,0.0033981539105814498,0.3708,0.0155315,0.020598527860019512,1.7425000000000002,0.002149,0.002722021307778468,0.2511,3.295
0.035934999999999995,0.05445451680072095,4.7034,0.001905,0.0024435425103730033,0.242,0.011246,0.013874966666626626,0.8349000000000001,0.0015239999999999997,0.0018988417522268672,0.2137,4.82
0.0449325,0.06683066549122492,6.249600000000001,0.0017324999999999999,0.0021801032085660534,0.2293,0.008988000000000001,0.01132585096140683,0.7564,0.001618,0.0020617710833164774,0.2006,9.171
0.036361,0.056520329970728235,4.8002,0.0013269999999999998,0.0016325440269714016,0.1764,0.011226,0.012857359760075161,0.6093999999999999,0.001248,0.0015565988564816564,0.18829999999999997,13.046
0.035865499999999995,0.048450795143114005,4.089499999999999,0.0011709999999999997,0.0014436065946094871,0.1623,0.00793,0.009689674917147634,0.5215000000000001,0.0011045,0.001358841418267783,0.1707,21.551499999999997
0.025008000000000002,0.035209998579948845,2.6972,0.001219,0.001521545267154415,0.1744,0.009501,0.011094264283854067,0.548,0.0012269999999999998,0.0014938206050259181,0.1652,35.2265
0.016561000000000003,0.021807879310010866,1.6721000000000001,0.0012584999999999999,0.001566764181362339,0.1461,0.0031130000000000003,0.0040346747080774676,0.2859,0.0008845,0.0010744998836668155,0.15640000000000004,48.85099999999999
0.020621,0.027814093549853463,2.1477000000000004,0.001192,0.0014666969693839284,0.1481,0.0032810000000000005,0.004179054917083527,0.2385,0.001098,0.0013402238618977055,0.17479999999999998,61.70450000000001
0.036927499999999995,0.049772117194268516,3.4827000000000004,0.001561,0.0020136533961930985,0.1603,0.0038135,0.004771053342816448,0.23529999999999998,0.0012674999999999997,0.0016134590171429828,0.14250000000000002,72.67399999999999
0.022575500000000002,0.04024486737461064,2.0705,0.0009635000000000001,0.001176414042758756,0.15100000000000002,0.006904999999999999,0.008390375438560542,0.2614,0.0011899999999999999,0.0014791213608085039,0.13410000000000002,71.728
0.0030629999999999998,0.0038291905149783288,0.19039999999999999,0.0011354999999999998,0.001365045786777865,0.1498,0.008206,0.010839714018367828,0.2491,0.0009155,0.001110833020755145,0.14990000000000003,70.43499999999999
0.018561499999999998,0.037179695399505365,1.8738000000000004,0.0009440000000000001,0.001223805540108395,0.1441,0.004468000000000001,0.00556307468941412,0.2355,0.0009409999999999999,0.0011082418508610835,0.13990000000000002,70.153
0.021269,0.0329254582352319,2.0832,0.001197,0.0015683111936092278,0.16140000000000002,0.00753,0.010093765402465028,0.34650000000000003,0.0011909999999999998,0.0014859004004306616,0.1515,69.8315
0.0201485,0.030336047039784205,2.0271,0.0012900000000000001,0.001499199786552813,0.15180000000000002,0.006412,0.0088456825626969,0.47830000000000006,0.001261,0.0015973415414368964,0.19340000000000002,62.864
0.0323265,0.04476632718908264,3.2806,0.0013335,0.0015779892268326802,0.17060000000000003,0.007597,0.009788319569772946,0.5363,0.0013195,0.0015792878141744778,0.17659999999999998,47.03
0.0584225,0.0780552531864448,7.142099999999999,0.0014279999999999998,0.0018208789086592223,0.19669999999999999,0.008995,0.011405481138470222,0.9524,0.001577,0.001935200248036363,0.209,29.1745
0.059408,0.08770644503113782,8.3539,0.0019574999999999996,0.0024153778172368813,0.2531,0.013789500000000001,0.017854535838268102,1.3367,0.001803,0.002226162617600071,0.21559999999999999,15.3575
0.0571745,0.0800695956652711,8.1937,0.003509,0.004503398716525109,0.37339999999999995,0.0120605,0.015575992745247411,1.1206,0.0028775,0.003760737959496779,0.3076,7.858499999999999
0.0647385,0.10081140436478403,8.463000000000001,0.004041,0.0052976221080783025,0.4298,0.016518500000000002,0.02224100155118919,1.4574000000000003,0.0030055,0.0037704044875848533,0.33210000000000006,5.254
0.0578975,0.08413488010331982,7.933600000000002,0.0030335,0.00395258775993652,0.39289999999999997,0.015278999999999997,0.019379530438067893,1.6255000000000002,0.0028485000000000003,0.0037898482819236972,0.3301,3.9525
0.061161999999999994,0.0983225676027635,8.1308,0.0041855,0.005334599328909342,0.499,0.018014,0.024089032774273027,1.9588,0.0033230000000000004,0.004231110965219419,0.3577,3.14
0.067039,0.09607992974601928,8.882200000000001,0.003608,0.0044409571040486305,0.4544,0.021139,0.02790829446598269,2.6791,0.0027549999999999996,0.0034448947734292265,0.31859999999999994,2.5894999999999997
0.06636899999999998,0.10636354873733764,8.987200000000001,0.0038755000000000005,0.005256524517207164,0.4948,0.023017,0.032017432751549585,2.7108999999999996,0.003135,0.004099512166099766,0.3873,2.2435
0.074549,0.10639138968920371,9.4936,0.003883,0.005028210417235938,0.5155000000000001,0.020339,0.02782986884625941,2.5925000000000002,0.0031834999999999997,0.004027648197149299,0.39590000000000003,2.07
0.0713965,0.10893936455661929,10.6968,0.0037495000000000002,0.004794887902756434,0.48630000000000007,0.021435,0.028449441119290902,2.4968000000000004,0.0029465000000000003,0.003698330704520622,0.3519,2.265
0.06697449999999999,0.09901103751602647,9.0183,0.0033225000000000004,0.004263290982328089,0.4761,0.022220500000000004,0.028394306647636248,2.8475,0.0028364999999999996,0.0035441853788987956,0.33949999999999997,2.1025
0.07170299999999999,0.11639634186691608,9.6631,0.0039475,0.004969874243881831,0.4897,0.0233625,0.028821654185698643,2.4477,0.002822,0.0035912950310438155,0.3643,2.2279999999999998
0.063011,0.10725097808411818,9.0615,0.002465,0.0033064784892692105,0.37549999999999994,0.017881,0.022953468147537095,1.9571,0.0021864999999999996,0.0028592219221319636,0.26839999999999997,2.417
0.0660515,0.10190932955328477,8.4651,0.0022085,0.0032004765270190623,0.30129999999999996,0.009692000000000001,0.012442178265882547,1.0874000000000001,0.0017475,0.002418708332974441,0.2318,3.1585
0.0476485,0.07863676398479276,6.7308,0.0018865000000000002,0.002544454754952424,0.2439,0.011575,0.013769161194495472,0.5984,0.0017599999999999998,0.0022337636401374254,0.24919999999999998,6.348499999999999
0.0489125,0.07409750704308479,6.01,0.0013815,0.001711534399303736,0.1845,0.012151,0.013764657641946638,0.5675,0.001189,0.0014398263784220651,0.19280000000000003,13.589
0.044728000000000004,0.06520402288202776,4.5609,0.0013109999999999999,0.0016018739026527652,0.1798,0.011917,0.014522833745519501,0.6467,0.0011704999999999999,0.001453530185445077,0.17000000000000004,24.3255
0.024762500000000003,0.03437332614106467,2.7781000000000002,0.0013335,0.0016238996274400706,0.16499999999999998,0.01117,0.015154778124406838,0.5528000000000001,0.001283,0.001604742970073401,0.1649,36.64849999999999
0.014408999999999998,0.021405345126860254,1.4337000000000002,0.0013169999999999998,0.0015969658731482023,0.15390000000000004,0.007626999999999999,0.009988183017946758,0.42010000000000003,0.0013235,0.0017069124172024762,0.1663,50.63799999999999
0.015641000000000002,0.022927834612104125,1.4256,0.0014554999999999998,0.0018211946628518326,0.16299999999999998,0.006615500000000001,0.007661667573054838,0.2836,0.00133,0.0016142800252744256,0.1582,62.9885
0.0283195,0.03906867607175856,3.1752000000000002,0.0035515000000000004,0.006809489701879282,0.256,0.0067585,0.00903987555224075,0.3237,0.0017775000000000002,0.002922267954859718,0.18680000000000002,75.0795
0.030120500000000005,0.04827385783216419,2.5974000000000004,0.0018,0.0023098917723564454,0.18160000000000004,0.0045245,0.005986664346695913,0.2649,0.0020225,0.0026594266299336026,0.2138,78.853
0.009809500000000002,0.020783747255969025,0.878,0.0014734999999999998,0.0018611421224613667,0.1588,0.0065745,0.008809072028312631,0.2601,0.0014149999999999998,0.0019314761194485423,0.1798,77.735
0.023131,0.04297723699820639,2.2018,0.0012674999999999997,0.0016150077399195335,0.156,0.006319,0.007321249893290079,0.2619,0.0010689999999999999,0.0013260467563400622,0.1593,76.22049999999999
0.001814,0.0022242077241121164,0.1925,0.0011324999999999998,0.0013918512851594455,0.15850000000000003,0.0028905000000000003,0.003559543510058558,0.2307,0.0009965,0.0012394151846738042,0.1446,75.67650000000002
0.0180695,0.029104407741783717,0.9109999999999999,0.029014500000000002,0.04250429095985486,4.1287,0.0074035,0.009517060995916754,0.5382,0.1305595,0.20917812971245348,12.178900000000002,84.20849999999999
0.012494,0.019059336294845106,0.7878000000000001,0.06876099999999999,0.10395316878287068,9.797,0.008163,0.011071169766560352,0.8598000000000001,0.28383250000000004,0.39104053837166297,29.3171,97.39800000000001
0.010017,0.012328463002337316,0.5915999999999999,0.08719350000000001,0.13509861194697745,11.7897,0.0106725,0.012830037022549857,0.737,0.18402949999999996,0.27889569528768277,21.1493,101.802
0.0065325,0.00798264680416214,0.5843,0.12408349999999999,0.17789912183594386,18.3601,0.00674,0.00858159076162456,0.7237,0.216552,0.2904733564373848,28.4042,102.91
0.0054585,0.006859712093083791,0.48250000000000004,0.08607,0.13149414169460175,13.837700000000002,0.006339,0.007720103626247513,0.6069,0.10590350000000001,0.14246232607254453,13.117399999999998,105.373
0.005681,0.007167893693408128,0.43989999999999996,0.08404299999999999,0.13956258703535127,11.68,0.005878000000000001,0.007836823336020789,0.6289,0.123381,0.16160000556930684,16.384999999999998,104.912
0.0048475,0.0058061906616989414,0.4095,0.05669350000000001,0.09066008851749484,9.3521,0.005356,0.006501745919366582,0.5272000000000001,0.1187265,0.1623786631611432,15.8397,105.22300000000001
0.004551,0.005814051943352416,0.4525,0.0647215,0.09361803859299767,10.8869,0.005673,0.007258581128567758,0.6437999999999999,0.1414835,0.18585042117251174,18.6843,105.265
0.0042245,0.005345825474143352,0.3991,0.053543,0.07519448450518164,9.158700000000001,0.004626,0.005803438635843408,0.583,0.10881899999999999,0.1463398674319476,16.2815,105.37899999999999
0.0034305000000000004,0.004617959506102236,0.4243,0.069009,0.09755093541324962,10.9256,0.005806,0.007291213890704346,0.6667999999999998,0.14047300000000001,0.1866319131338475,18.3495,105.569
0.004119,0.005280568151250394,0.4577,0.079376,0.11802198524003908,13.0866,0.005218499999999999,0.0067887590913214765,0.6317000000000002,0.153526,0.2030001036945548,21.973300000000002,105.8355
0.0027975,0.0035430565900081245,0.383,0.05136100000000001,0.06800312713397819,10.0103,0.0037890000000000003,0.004601706205311243,0.4844,0.109487,0.1480549722231577,17.0773,105.98199999999999
0.004182,0.005230353716528166,0.44310000000000005,0.0723415,0.10132856976193831,12.1135,0.0049275,0.006615659453145998,0.5716000000000001,0.13236699999999998,0.17541679110051012,19.4268,106.26
0.0032610000000000004,0.004181506905411014,0.3875,0.0790925,0.11148405513794339,13.1165,0.0046315,0.005697644250038782,0.5496,0.10805949999999999,0.14271543381849072,14.8976,106.56650000000002
0.0033605,0.0041646188300971795,0.2704,0.017366,0.035122751885352035,2.6439000000000004,0.004162,0.005577517368865829,0.387,0.0539835,0.12860458059493837,6.847799999999999,106.60600000000001
0.008307,0.01011746509754296,0.4334,0.0038240000000000006,0.005654272720695385,0.4253,0.005983,0.007226603628261343,0.4252,0.0048385,0.006925037906033439,0.46230000000000004,98.03450000000001
0.017123,0.02065447167080291,0.5550999999999999,0.0034345000000000005,0.0048120214047736734,0.3284,0.0063714999999999996,0.008110225027704225,0.3949,0.0040415,0.00570169711577176,0.41100000000000003,64.87049999999999
0.0174255,0.02068132128274207,0.6873,0.00153,0.0018659849945806101,0.1758,0.0211445,0.02582511665026898,0.623,0.0013464999999999998,0.0016261764971859604,0.16319999999999998,32.7325
0.013285499999999999,0.017250928960493694,0.8049000000000001,0.01343,0.02053416177982437,1.4262000000000001,0.0135565,0.019839512342797138,0.7229,0.0019765000000000004,0.0026328026891508597,0.2352,13.0675
0.013703,0.01896343323346276,1.1000999999999999,0.002362,0.003151031577118833,0.2375,0.019909499999999997,0.02571568295807055,0.6311,0.001553,0.0019061741788199734,0.18629999999999997,8.8295
0.013122000000000002,0.017601835131599203,1.0589,0.0013455000000000001,0.0016211261517846166,0.1769,0.006956,0.009134128310900828,0.4671,0.0014015,0.001728973684010257,0.1823,7.2065
0.0166875,0.028731838611547298,1.3558,0.0012905,0.0016001718657694243,0.184,0.0054345,0.0066396649011828904,0.40449999999999997,0.0010535,0.0012697046900756097,0.1632,6.2925
0.012558,0.02160432827004811,0.5835999999999999,0.0029495,0.004405229846443883,0.2643,0.0049515,0.005815311685541885,0.2702,0.0032740000000000004,0.00576262093148595,0.421,8.191500000000001
0.027368499999999997,0.04181363952109407,1.3847,0.006657,0.008696430302141218,0.5286,0.008553499999999999,0.00999952748883666,0.4379,0.011715499999999998,0.016989253956545592,1.3047,26.747000000000003
0.005954500000000001,0.007281658464937778,0.48919999999999997,0.011764000000000002,0.015782769085303124,1.2452999999999999,0.006163000000000001,0.0073773775828542216,0.47259999999999996,0.029916,0.04520383943870255,3.9261999999999997,58.634499999999996
0.010528,0.014435165395657925,0.5852999999999999,0.0177355,0.025938370226365418,2.2422,0.0049585,0.006039697840124123,0.40390000000000004,0.0825525,0.12533466778988164,9.973300000000002,83.80650000000001
0.007249,0.009092249446644104,0.5536,0.0368085,0.04935960443520593,5.3242,0.006382,0.00790311331058843,0.5584000000000001,0.151629,0.219284786522002,19.8978,98.3225
0.0056565,0.00712246095110391,0.5395,0.0637655,0.09610892492375513,9.954900000000002,0.005236000000000001,0.006728201840016395,0.5919000000000001,0.19492199999999996,0.26617248204876476,23.349899999999998,105.65
0.0097255,0.01549491045472674,0.6837,0.075766,0.09645696138693152,13.087400000000002,0.005827,0.007714389152745666,0.7090000000000001,0.220975,0.28942896727867445,31.7275,108.48700000000001
0.004745999999999999,0.006028673154185754,0.5428000000000001,0.0667225,0.09646862417387324,10.7106,0.005309,0.006606254612108135,0.6547000000000001,0.2097355,0.2761923826791753,29.7651,109.55950000000001
0.005223500000000001,0.0065783926608252875,0.5203,0.0500255,0.06519185646996103,8.848,0.005307500000000001,0.00645208880906021,0.6241000000000001,0.1912605,0.24676601822374164,28.0599,109.33149999999999
0.0048625,0.006007707549473426,0.4684,0.046305500000000006,0.061227116949926684,7.6248000000000005,0.005783,0.007556308622601382,0.6328,0.19408250000000002,0.26826844512540043,25.290999999999997,109.69049999999999
0.0051715,0.006912839503416812,0.5758000000000001,0.052313,0.0734063198914099,7.941699999999999,0.0040835,0.005058769613255776,0.6287,0.2432535,0.3434759724493112,29.566200000000002,109.70549999999999
0.0046015,0.006131627027143775,0.43310000000000004,0.0466975,0.0670448279138667,7.848599999999999,0.004854999999999999,0.006234805530247115,0.5201,0.17898899999999998,0.26778689773773473,25.619400000000002,109.89299999999999
0.005254999999999999,0.006974087753964671,0.5405000000000001,0.05125299999999999,0.07207481807122373,8.441300000000002,0.005332,0.006855552494146625,0.6616,0.2080705,0.3159437471291369,29.781800000000004,109.87349999999998
0.0043630000000000006,0.0055555017775174905,0.397,0.0427475,0.05979952466366267,7.604900000000001,0.005667999999999999,0.006857083928318217,0.5529000000000001,0.1611365,0.22421459397193574,23.058899999999998,110.395
0.002914,0.003765395065594047,0.2771,0.019053,0.03184543138348105,3.0813,0.0035505,0.004691348420230584,0.39549999999999996,0.062135499999999996,0.11693928959079579,8.5923,109.62299999999999
0.0067975,0.00851027907885517,0.3892,0.0058575,0.007337209960196042,0.6332,0.0043935,0.005604368831545618,0.3829,0.0127975,0.0209892936994078,1.5154,100.07799999999999
0.0114855,0.014419769415632137,0.39830000000000004,0.0035085,0.004901107017807303,0.3440000000000001,0.0043795,0.00539712423425661,0.30089999999999995,0.004505,0.005776711867490017,0.43979999999999997,71.88850000000001
0.007882,0.010767492744367186,0.40069999999999995,0.001674,0.0022511774696811443,0.19930000000000003,0.007062999999999999,0.00871797568246207,0.28459999999999996,0.001684,0.0024172091345185673,0.1794,39.5485
0.016038000000000004,0.0222069876390293,1.1265,0.0022805,0.0029354301218049803,0.22269999999999998,0.010118499999999999,0.014098703841133766,0.8788,0.0022515,0.0028853682607251365,0.2202,15.098000000000003
0.016175000000000002,0.02875698697708089,1.3529,0.0029495000000000003,0.006394493725073159,0.36529999999999996,0.0100935,0.013336268218658472,0.75,0.001883,0.002472994136669151,0.2076,6.6835
0.010453,0.015997909238397372,1.1445999999999996,0.0018995000000000001,0.002392268797606155,0.21139999999999998,0.006425000000000001,0.008760359581661019,0.6493,0.0016169999999999997,0.0020266474779793353,0.1939,4.945500000000001
0.008328499999999999,0.012598359020126392,0.8139000000000001,0.001568,0.0020731618364228104,0.203,0.005355000000000001,0.006794070944581018,0.5085999999999999,0.0015415,0.001897327067218512,0.2028,4.314
0.0096865,0.014624303402213728,1.0616,0.001419,0.0017991386828146406,0.1986,0.0049735000000000005,0.00614024836631223,0.5123,0.001445,0.0017538529014715003,0.17930000000000001,3.7755
0.0086805,0.015943435953394737,0.9185000000000001,0.0011560000000000001,0.0014996999699939985,0.17329999999999998,0.0046245,0.005760351551771819,0.5004,0.0010895,0.0013424790501158667,0.1698,3.72
0.0059499999999999996,0.008038762342550002,0.35550000000000004,0.002122,0.0030427619032714344,0.2569,0.005799500000000001,0.00744358448598523,0.29910000000000003,0.0039505,0.007630540609943702,0.5136000000000001,4.8134999999999994
0.055224999999999996,0.08685073517247853,3.3069,0.011280000000000002,0.015927178030021517,0.9520000000000001,0.017728,0.022615561014487348,0.7554000000000001,0.018794500000000002,0.028598339986789446,1.9288,26.7865
0.010899999999999998,0.013181718400876268,0.645,0.009948,0.01386631890589568,1.1932999999999998,0.0121055,0.016095668672037208,0.6494,0.0424445,0.05988239933402803,4.7283,65.77
0.0075534999999999995,0.009754068381962471,0.6218999999999999,0.0235865,0.03353117131864022,3.1443999999999996,0.007423,0.009631661331255372,0.558,0.119814,0.1782308601224827,13.2718,92.03849999999998
0.010037500000000001,0.013414766117976117,0.7948000000000001,0.0571875,0.09452804266459768,7.994699999999998,0.0090235,0.013650657493322437,0.6782999999999999,0.17609750000000002,0.22514165329854002,20.976100000000002,106.314
0.0127285,0.02172756889299859,0.762,0.1029485,0.15715151844637074,15.776700000000002,0.0084155,0.010600922129701738,0.7042999999999999,0.238416,0.34258528354265305,28.124200000000002,109.48
0.0087145,0.010595491965925886,0.583,0.08832550000000002,0.12813136208594678,13.412199999999999,0.007987,0.010905205179179344,0.7656000000000001,0.1470535,0.19599686234733452,22.759,111.41649999999998
0.0043324999999999995,0.005538433894161778,0.4488,0.095137,0.15491305948821746,14.128,0.007232499999999999,0.009176336414931614,0.7308,0.1795485,0.24623669659496328,24.307700000000004,111.06549999999999
0.005114499999999999,0.006306786027764062,0.47250000000000003,0.05921749999999999,0.08250234451214099,9.762900000000002,0.0064375000000000005,0.008290967977262968,0.7952000000000001,0.148776,0.2027962474997997,21.541900000000002,111.8775
0.0046135,0.005725823084937222,0.48760000000000003,0.06669649999999999,0.0971436809576413,11.4394,0.006124500000000001,0.007642129938701645,0.7228,0.15073999999999999,0.2060331866472001,20.4345,111.96
0.004316,0.00574893033528847,0.5071,0.165794,0.24049045344878037,23.3604,0.005727500000000001,0.007043809338703028,0.6497999999999999,0.154011,0.2129630676901514,23.160800000000002,112.35099999999998
0.0046705,0.0056372200595683685,0.4343,0.1573295,0.22263014205178958,24.078899999999997,0.0046255,0.00593710788178891,0.5829,0.1208625,0.15649733432234555,17.2472,112.435
0.005577000000000001,0.0074271259582694565,0.4942000000000001,0.089858,0.1252416252689177,15.892999999999997,0.005899000000000001,0.007941372677314672,0.6905000000000001,0.13549999999999998,0.1912427060046997,19.4151,112.2625
0.004306,0.005712932696960467,0.3381,0.048187,0.0934311998210448,7.529299999999999,0.004719,0.006142947175419955,0.49479999999999996,0.059231,0.0981984561996776,7.7689,112.35
0.0073325,0.010126536920388925,0.41590000000000005,0.0058235000000000006,0.00902081204770391,0.6882,0.006023000000000001,0.007832873036121549,0.4595,0.018760000000000002,0.0428562784198535,2.0511,106.70150000000001
0.0112765,0.014538103383866824,0.44,0.0105375,0.022050962564024276,1.3013999999999997,0.005526,0.006602719136840518,0.38470000000000004,0.004944500000000001,0.006377354467175241,0.6575,78.368
0.0186375,0.02343464635961038,0.7601,0.0023955,0.0036662992240132286,0.24239999999999998,0.0223695,0.03287332124991328,0.6666,0.001824,0.002605993092853471,0.2032,39.766999999999996
0.06739049999999999,0.08764553696566643,2.8888,0.0012405,0.0016979840988654753,0.183,0.0138975,0.019600904315872775,0.6392,0.0015125,0.0019044553027046868,0.1808,15.641999999999998
0.021225500000000005,0.030944507590200884,1.9468999999999999,0.0016515,0.0024720133494785176,0.2247,0.024306499999999998,0.03187318857598028,0.6958000000000001,0.0012844999999999998,0.0016664783226912974,0.177,8.345
0.0162215,0.02451787001352279,1.6662,0.001249,0.001570827807240501,0.1739,0.006058000000000001,0.007592292144010266,0.3739,0.0011145,0.001388614417323974,0.1703,8.187999999999999
0.021353499999999997,0.03242853450281095,2.2821,0.0009615000000000001,0.0012143928524163835,0.1663,0.0058945,0.006895697934219567,0.3052,0.000983,0.0012437845472588892,0.15739999999999998,9.3975
0.021118500000000005,0.03249873612927124,2.5513,0.001255,0.0015458654533949583,0.1773,0.0049605000000000005,0.005791808871155884,0.3783,0.001066,0.0013084723917607128,0.15050000000000002,13.396499999999998
0.005123,0.007481183061521754,0.29619999999999996,0.0055215,0.010828552534849706,0.7387,0.054198,0.0754246750075862,1.4906,0.008678000000000002,0.012940761183176205,1.2476000000000003,5.0735
0.0027705000000000004,0.0036589957638674575,0.29490000000000005,0.0015459999999999998,0.0019416487838947601,0.1709,0.047488,0.08582559816278591,1.7186999999999997,0.0017735000000000001,0.0023041375826977,0.1857,11.166500000000001
0.012427,0.01675661958749437,0.7323,0.002979,0.004800687450772024,0.22579999999999995,0.1296575,0.1685705266349963,5.180999999999999,0.0085145,0.012708644695639265,0.5496,45.4555
0.0043939999999999995,0.006669512725829377,0.32430000000000003,0.005452499999999999,0.009487383727877776,0.6229,0.052865999999999996,0.06476778597420171,1.7376999999999998,0.017026,0.026759204024036292,1.9754999999999998,33.213
0.012226500000000003,0.017360491064483168,0.8119000000000001,0.018885,0.02879564203139079,2.0032,0.2383305,0.39600209690101396,9.7967,0.0206575,0.027212125054835393,2.2468000000000004,5.0015
0.006335500000000001,0.008153873312726902,0.46070000000000005,0.041058,0.05816143739626799,4.9899000000000004,0.06759699999999999,0.08030203048491365,2.7405,0.035410500000000004,0.04385376779707759,5.1699,3.0250000000000004
0.005023,0.006135601030054024,0.3183,0.029917500000000007,0.04998826012175259,3.3495,0.036468,0.043590118146203734,1.6196000000000002,0.0336715,0.04744367766099083,5.6769,4.513999999999999
0.0028985000000000005,0.0038702131724234518,0.34809999999999997,0.0043955,0.0065457428913760435,0.6366,0.035715,0.047255239921092346,1.3856,0.0099775,0.01786187420177401,1.6185,6.4725
0.009228,0.014087018847151444,0.5429,0.007125000000000001,0.009670858286625858,1.0149000000000001,0.18133400000000002,0.2669061934463118,6.1093,0.017942,0.0303901118787016,2.6955,21.148500000000002
0.010855000000000002,0.015090109343540225,0.6698,0.0044235,0.0066681294228591575,0.7389,0.12386299999999999,0.17500092171185844,4.5724,0.016284,0.02209862439157696,2.2012,46.92
0.0037355000000000005,0.005587830527136628,0.32600000000000007,0.0038475000000000002,0.006826496173001198,0.5657,0.15004099999999998,0.29018406865298446,5.653299999999999,0.0108955,0.015762092183463465,1.4233,19.6
0.005873999999999999,0.007202041377276307,0.4209,0.018236000000000002,0.025042070601290142,2.145,0.1812815,0.2610182787660665,5.2201,0.019336,0.024705523673866945,2.2774,6.1225
0.0058425,0.006852200376521398,0.43090000000000006,0.0260325,0.03529676118286209,3.0807,0.0660165,0.0932468329220891,2.5986000000000002,0.0277005,0.034614952693886494,3.6377,4.180000000000001
0.003045,0.0039219510450794765,0.29680000000000006,0.019462999999999998,0.03234937711919659,2.9448999999999996,0.0818185,0.11205501528267264,4.270499999999999,0.0167285,0.02335842781524476,2.8617999999999997,4.037000000000001
0.0035215000000000003,0.005058344590871602,0.3,0.0018124999999999997,0.002524529659164257,0.23669999999999997,0.045109500000000004,0.061045782409598126,1.4459,0.0034850000000000003,0.005646529907828347,0.4384,5.742000000000001
0.005430000000000001,0.009058658841130954,0.3638,0.003019,0.004214985171978663,0.2869,0.112775,0.1656619044922519,4.5381,0.0038309999999999998,0.005215275639887119,0.5303000000000001,20.616499999999995
0.006965,0.009421984928877778,0.4035,0.0028105,0.003615127936878583,0.25539999999999996,0.11357099999999999,0.1455804997243793,3.7883,0.012587000000000001,0.016724248862056555,0.7469,49.156000000000006
0.003627,0.004831697424301319,0.3436,0.015117999999999998,0.022900141920957608,1.8837000000000002,0.13885750000000002,0.24299145365629632,4.647500000000001,0.013943500000000003,0.018027785499056728,1.5046,19.118
0.0055035,0.006945167384591965,0.45000000000000007,0.024483500000000002,0.03721961243753083,3.3515000000000006,0.0559365,0.08485058897850976,1.8156,0.0239405,0.03101895630094604,3.1863000000000006,7.280999999999999
0.0038484999999999995,0.004753309373478651,0.3587,0.0376965,0.04895590822362506,4.9854,0.1001055,0.13490701890561516,3.6716000000000006,0.037183,0.047858334697312654,5.268600000000001,4.492999999999999
0.0035185,0.004713995120913894,0.3483,0.015878999999999997,0.023895549794888588,2.1369,0.062472999999999994,0.09145404911757599,2.1153,0.022517,0.032016288042182525,3.6367000000000003,6.3865
0.003431,0.005707162166961791,0.2962,0.002529,0.0034072716357813324,0.3161,0.078261,0.12812285510399773,2.4596999999999998,0.005676,0.008661547205898032,0.9084000000000001,7.9245
0.0069110000000000005,0.012705675897015474,0.6052,0.0027065,0.003456855507538607,0.20590000000000003,0.19539250000000002,0.2638613913591755,7.322099999999999,0.006784000000000001,0.010266961575850959,0.38249999999999995,23.621499999999997
0.007283500000000001,0.009785466263801638,0.4306,0.00242,0.0030614049062481098,0.21459999999999999,0.087415,0.1397932144275966,3.0686999999999993,0.010958999999999998,0.016088551830416558,0.4159,44.163999999999994
0.0038715,0.0049360763770428025,0.367,0.019748,0.030047410870156516,2.2029,0.22231799999999996,0.35312189127835164,7.8065,0.018724499999999998,0.02546205902907304,2.6712,15.348000000000003
0.006089,0.00726735852975481,0.517,0.019407000000000004,0.029229934998217154,2.6029999999999998,0.0577825,0.07488235139203363,2.1597,0.024228,0.03189199586103071,3.0253,6.379499999999999
0.0056125,0.009045979770041495,0.41309999999999997,0.0190575,0.02982514124023556,2.5242,0.06481400000000001,0.08808005676655756,2.4097,0.017203,0.022510604167813888,2.6542000000000003,3.947
0.00468,0.006378118844925987,0.2772,0.0029479999999999997,0.004131295196424482,0.37870000000000004,0.0268625,0.03723629882251994,0.9155,0.007220500000000001,0.010613616254604271,0.9332999999999999,5.211
0.0061325,0.011220764234222195,0.5025999999999999,0.0016419999999999998,0.002113456883875325,0.1815,0.06370250000000001,0.10146012591161122,2.3286,0.0020195,0.0026172409136340506,0.18930000000000002,15.1065
0.0073360000000000005,0.009293842047291315,0.4097,0.002601,0.0032969531388844456,0.2787,0.09246499999999999,0.1187232319304019,2.9905000000000004,0.009663,0.015567299059245955,0.7678,47.36450000000001
0.0046134999999999995,0.0062908544729631125,0.3279,0.010891,0.01885787368713663,1.4347999999999999,0.049332,0.061648131358541594,1.8087999999999997,0.018443499999999998,0.028245526194425906,2.4833,26.2955
0.0085235,0.010948422260764333,0.6577,0.013215,0.017688301218602084,1.6991,0.178102,0.2553702621684835,5.6209,0.0262005,0.032664900887650034,3.0556,6.702999999999999
0.004873,0.006287535288171351,0.4216,0.014014000000000002,0.020289524390680037,2.1616,0.1044435,0.13042011558804878,2.8577000000000004,0.0207045,0.02795916397176425,2.9672,4.528
0.004255,0.005793444571237392,0.32599999999999996,0.0036114999999999997,0.005638958237121463,0.5357000000000001,0.022520499999999995,0.027201263757406568,0.8755,0.008298999999999999,0.012610975378613663,1.1958000000000002,4.419
0.002531,0.003354355377714174,0.23099999999999998,0.002229,0.002786431409527247,0.17830000000000001,0.017269,0.021365502568392813,0.5174,0.0017609999999999998,0.0023045173030376664,0.21649999999999997,6.594499999999999
0.009332499999999999,0.013878676089598748,0.6127,0.0025675,0.0033096298886733542,0.2107,0.090627,0.12795797239718987,3.4679,0.0032495,0.004705310829265161,0.2669,31.031499999999998
0.008647,0.012863599807207934,0.49890000000000007,0.0038025,0.00549092433020161,0.4456,0.0457065,0.06317907841999597,1.9636,0.011953,0.01951630344096955,1.6418000000000004,44.188
0.005239499999999999,0.006902691504043911,0.4084,0.016466500000000002,0.022565645348626748,2.0616,0.15904800000000002,0.23679286306812544,4.425799999999999,0.022126999999999997,0.029516024461298983,2.7098,10.7585
0.0069500000000000004,0.008494733662687723,0.47440000000000004,0.017536,0.025452736591573016,2.2118,0.0641385,0.0798126578306975,2.2929000000000004,0.024041999999999997,0.029838971161888272,2.7518000000000002,4.507
0.004559,0.005712801414367561,0.3274,0.010985,0.017417939028484396,1.4992000000000003,0.06614199999999999,0.09380232832931173,2.6361,0.01761,0.02206499943349195,2.5968,3.6055
0.0034375,0.005036710235858323,0.3307,0.003198,0.00408319727664486,0.351,0.058896500000000004,0.07760844573884985,1.2832999999999999,0.005131,0.007921597061199213,0.669,4.165
0.0025215,0.003138717891114141,0.26559999999999995,0.0021325000000000003,0.002692777376613225,0.17550000000000002,0.0365845,0.0719228499852446,1.178,0.002015,0.0027403466933948336,0.1947,9.312999999999999
0.0099795,0.012683601617837104,0.5223,0.0039895,0.005562243252501638,0.2631,0.090969,0.11411398205303326,3.0835000000000004,0.0072905,0.013319483848858409,0.6383000000000001,40.064499999999995
0.0040725,0.005198648862925827,0.2641,0.0059445,0.009803420321500044,0.7541,0.0350455,0.0419769752364317,1.4905,0.0145425,0.02594305783827342,1.9175000000000002,33.7855
0.005169,0.006704110679277305,0.46909999999999996,0.0131295,0.01834817565863157,1.5492000000000004,0.20434750000000002,0.2965736403492394,5.621599999999999,0.017862,0.022607695592430466,2.1311,7.827000000000001
0.005589500000000001,0.007508525154782396,0.44049999999999995,0.016685000000000002,0.02340251054908426,1.8634,0.079047,0.09462078894196561,2.3392999999999997,0.023386500000000005,0.02931753826636882,3.174,3.9975
0.003614,0.0046088827279504516,0.2866,0.008826,0.014598448547705334,1.3377,0.053229500000000006,0.07684173638069354,1.8065000000000002,0.015905500000000003,0.020709989135680396,2.5122999999999998,4.0329999999999995
0.0038829999999999997,0.005277736257146619,0.2971,0.0018595,0.0024084331005863545,0.27890000000000004,0.026419,0.03341917862545398,1.0088,0.0033900000000000002,0.004663710968745812,0.5815,4.2459999999999996
0.0024514999999999997,0.0031286179057213107,0.2481,0.0015265,0.0020453483810832815,0.1936,0.0637645,0.10695755302922744,1.6936999999999993,0.0032835000000000004,0.00656820751803717,0.3913,12.239
0.0070350000000000005,0.008779339382892087,0.38180000000000003,0.004913000000000001,0.0068437562785359325,0.4284,0.12138100000000002,0.15184392414581493,3.673,0.012435,0.01759309239445982,1.013,42.9795
0.0038580000000000003,0.004577444702014433,0.26999999999999996,0.0103105,0.015888132363496975,1.3613,0.023190999999999996,0.02869133144348655,1.194,0.015056499999999999,0.021455648440445698,1.9675,24.8415
0.005912999999999999,0.0077711646488798575,0.41080000000000005,0.011360000000000002,0.016105747421339998,1.4837,0.273909,0.41541618589072815,8.310699999999999,0.016288499999999997,0.02223434842760183,2.0012,6.987
0.005190000000000001,0.00653689528751991,0.36440000000000006,0.0193785,0.02768755948074875,2.4495999999999998,0.121356,0.20666779333026228,4.8956,0.018670999999999997,0.023816406110074625,2.5776,2.3425000000000002
0.0044815,0.005735080644594285,0.3721,0.0211435,0.02853672633642479,2.9076,0.0839715,0.10719857858199427,3.3204000000000002,0.027204000000000002,0.03669235070147455,4.2019,4.0365
0.0026474999999999997,0.0034292200279363817,0.30720000000000003,0.018819000000000002,0.02786400366063714,2.6164,0.08533349999999999,0.09980846782713379,2.4989,0.0250415,0.032478686087956204,4.2197000000000005,5.034000000000001
0.0022164999999999997,0.002755639671655204,0.2652,0.0113775,0.02282543208791457,2.0135,0.0617985,0.0942452675204437,2.7423,0.018524500000000003,0.026821110155994664,3.398599999999999,7.3695
0.0060805,0.011939759210302358,0.6751000000000001,0.0013905,0.0016705538003907567,0.1548,0.191601,0.403801916785941,6.0107,0.0017595,0.002312109426476178,0.1785,18.933000000000003
0.0062050000000000004,0.00800747151103268,0.37870000000000004,0.001544,0.0018876440342395068,0.17210000000000003,0.187418,0.30852825802509565,4.8435,0.006863,0.011203526230611502,0.44610000000000005,44.1365
0.003372499999999999,0.00473731464017327,0.30720000000000003,0.009326999999999998,0.014956908102946946,1.1612,0.1239095,0.2152119784073368,4.728999999999999,0.008907499999999999,0.014155594300487705,1.1763000000000001,18.517
0.007318,0.009530498412989743,0.5428,0.011135,0.014578748231586964,1.3498,0.14014200000000002,0.18840460742773782,4.694,0.0188225,0.023759519144965876,1.9135999999999997,5.727
0.0044745,0.005707035132185538,0.4023,0.0191885,0.027614252660537457,2.6155,0.0356195,0.04351021661633047,1.3001000000000003,0.0276155,0.03752961297429005,3.8050000000000006,4.9605
0.0067504999999999996,0.008859229650483162,0.4195,0.0142985,0.02097327466086305,2.0113000000000003,0.09377,0.12102904692676052,2.8638,0.023064499999999998,0.029328207411977978,3.4817,5.3525
0.0022385,0.0030957147801436748,0.2361,0.0029905000000000005,0.004341998387839406,0.432,0.039304,0.048189780036850136,0.802,0.006005,0.009198782528139254,0.9153,6.758500000000001
0.010353500000000002,0.02010514486393968,0.8120000000000002,0.0017449999999999998,0.002524896037463721,0.2345,0.2905665,0.4935628474166183,8.6932,0.004456000000000001,0.010929336667886118,0.5111,25.217
0.007800499999999999,0.010915088181045538,0.4548,0.0017709999999999998,0.002282476724963477,0.17670000000000002,0.09537600000000002,0.1495982416340513,4.199700000000001,0.006536999999999999,0.008915996859577733,0.23079999999999995,47.77
0.003564,0.004576472440646835,0.34099999999999997,0.006514,0.013526204197778472,0.742,0.19996299999999997,0.30990623339971723,5.9502999999999995,0.008629,0.014355671353162135,0.9769,16.8525
0.00522,0.006339747629046444,0.43190000000000006,0.015566499999999999,0.021195856906480567,1.7288999999999999,0.136493,0.20355141438958363,3.8288,0.018225,0.023705041657841482,2.1553999999999998,4.365
0.0044935,0.005628911973019297,0.39780000000000004,0.017648,0.02510489792849196,2.7931999999999997,0.0518585,0.06897855717540052,2.005,0.033712,0.04931111335186014,4.2766,3.404
0.0028870000000000002,0.003725560360536385,0.3104,0.016371499999999997,0.027096482244010935,2.3194,0.032034,0.054445260583452074,0.9257,0.01844,0.024326372520373847,3.2489999999999997,2.983
0.0035705000000000003,0.004694885515111098,0.2731,0.0024579999999999997,0.003297119955354976,0.3184,0.022096499999999998,0.029823194832210718,0.9405000000000001,0.003688500000000001,0.006085577211735958,0.5051000000000001,5.636500000000001
0.008750000000000003,0.014265030669437762,0.5059,0.0032504999999999995,0.004981249843161855,0.19290000000000002,0.11569850000000001,0.16738022030694066,3.7028,0.00266,0.0038349706648160946,0.25260000000000005,24.360500000000002
0.0040185,0.005051074143189744,0.3064,0.003021,0.00446128905138414,0.40939999999999993,0.069308,0.10107715617289596,2.3079,0.010383499999999999,0.014323517375281813,0.8419999999999999,46.319500000000005
0.0082795,0.013593412007292355,0.5710999999999999,0.0145625,0.019142934727987764,1.7799999999999998,0.18343600000000002,0.3155921271198,5.3332,0.0199815,0.026614607831038955,2.4890000000000008,12.606
0.008324000000000002,0.011346131499326104,0.6288,0.027259500000000002,0.03680830137346737,4.0012,0.092408,0.10985315106996249,2.6227,0.035892,0.04802340054598383,4.4186,6.54
0.006003499999999999,0.008474199077198978,0.444,0.022071500000000004,0.03907886705113136,3.0946,0.08361750000000001,0.10922308936300967,2.8869,0.025640999999999997,0.0326130020084015,3.3991000000000002,4.6625
0.0031629999999999996,0.003921237049707656,0.3015,0.0027149999999999995,0.0038941751373044327,0.2819,0.027386999999999998,0.03602994449065943,1.2416,0.0043765,0.0070902644520497255,0.5061,5.127000000000001
0.0051305,0.009136725343360168,0.4289,0.0019074999999999997,0.002583960139011436,0.21139999999999998,0.0951115,0.15968896971926397,3.3455000000000004,0.003663,0.0057178579905415635,0.303,17.1385
0.010870999999999999,0.015089691845760138,0.5885,0.002066,0.002893008814366109,0.24609999999999999,0.0774595,0.10307006670221962,3.0468,0.0072455,0.010854558950044906,0.5901000000000001,49.32699999999999
0.006508000000000001,0.00854164504062303,0.4145,0.007297499999999999,0.010505715111309653,0.8923000000000001,0.037871,0.046659497425497416,1.5499,0.014932500000000001,0.022378363434353284,2.0469,23.089000000000002
0.008112000000000001,0.010201779256580688,0.6262000000000001,0.015648999999999996,0.02161607734997263,1.6265,0.1859765,0.29048715315827656,6.0099,0.029021999999999996,0.045941179784589774,3.3312000000000004,8.005
0.006566499999999999,0.008338875823514821,0.5274000000000001,0.030746000000000002,0.04470568084706909,3.6855,0.093665,0.11213624124251713,3.3829,0.034637,0.045822766175777734,5.0373,6.142
0.0037245000000000004,0.004564750814666667,0.2726,0.012290999999999998,0.0202107298235368,1.617,0.0448285,0.053440964156721574,1.3393000000000002,0.016066,0.022436918237583342,2.3375,5.246500000000001
0.0020775,0.0026765929836267597,0.24150000000000002,0.0019314999999999998,0.00241914241002881,0.19000000000000003,0.0428695,0.06205555051725833,1.3568000000000002,0.0020959999999999998,0.002805672824831862,0.22719999999999999,10.8265
0.0128895,0.018653794520150587,0.6980000000000001,0.0036125000000000003,0.0051078909542001776,0.3788,0.12266549999999998,0.15952416509732936,4.4953,0.0079125,0.011425036104975774,0.5989,44.31100000000001
0.005381,0.008214657631331935,0.389,0.009421500000000001,0.014889279700509355,1.1253,0.037041000000000004,0.04817375634097885,1.6768000000000003,0.020087999999999998,0.029351708638510297,2.3777,34.8035
0.0077255,0.010456555360155656,0.6063000000000001,0.012475,0.01705760241065549,1.4723,0.19929349999999998,0.2955788032826441,5.774900000000001,0.020633500000000003,0.02682771235122369,2.4019999999999997,8.774000000000001
0.005689500000000001,0.0071970236903875755,0.45130000000000003,0.032511,0.0441418101124093,4.227600000000001,0.0850355,0.10512950989137161,2.4450000000000003,0.0394885,0.05345749760323616,5.2691,5.382999999999999
0.005847,0.008220079075045447,0.3293,0.009706500000000002,0.014779957713065353,1.4066,0.0535255,0.0662479241184205,1.9803000000000002,0.0165375,0.022984989667171923,2.5729999999999995,4.591
0.0028905000000000003,0.0037487798014820767,0.27359999999999995,0.0018919999999999998,0.002379768896342668,0.1956,0.0350765,0.0522227072258802,1.3955,0.0020540000000000003,0.002905924981825924,0.25620000000000004,7.2170000000000005
0.011045000000000001,0.016313788646418095,0.5104000000000001,0.0027395,0.003831872910209836,0.21839999999999998,0.217013,0.2898052539206286,6.846500000000001,0.0047025,0.0060185089515593475,0.43010000000000004,35.3885
0.0062025,0.007988350893645071,0.29510000000000003,0.0038335,0.005753203455467223,0.5330999999999999,0.0475655,0.07026622552834327,2.7974,0.011841500000000003,0.01762705165363737,1.3719999999999999,46.86
0.0076170000000000005,0.010029965104625239,0.5725,0.016729000000000004,0.024924628382385162,2.2096999999999998,0.17621050000000005,0.2691665933023636,4.8933,0.019575500000000003,0.027026295528614346,2.3963,10.3475
0.0084145,0.010927723916717515,0.6306,0.0179245,0.025853702829575494,2.1458000000000004,0.0708295,0.09332083181155214,2.4665,0.0251455,0.03069093107092061,3.2719000000000005,5.547000000000001
0.005908,0.007060694016879644,0.3408,0.007949,0.01296352575497885,1.2288999999999999,0.11510549999999999,0.14024732778202942,3.1822999999999997,0.017958500000000002,0.02412634970317723,2.7375999999999996,3.8045000000000004
0.005049000000000001,0.006750296289793508,0.3346,0.0023820000000000004,0.003120480732194961,0.24590000000000004,0.0496765,0.07009798748894294,1.6948,0.003417,0.005181100269247836,0.33099999999999996,4.224
0.0033350000000000003,0.005078759691105694,0.3205,0.0021265,0.002689786236859725,0.194,0.11369050000000001,0.21854892575805537,4.3248,0.0023555,0.003387572877444853,0.2305,16.3715
0.012187000000000002,0.01513416664372373,0.73,0.0063165,0.008188030898818104,0.3214,0.128969,0.1831452388133527,4.019,0.008099,0.013373701806156739,0.6536,48.464
0.0052734999999999995,0.007259011640712529,0.37670000000000003,0.007879,0.010442652919636848,0.9385999999999998,0.030941999999999997,0.04923260200314422,1.5397,0.014549500000000002,0.020410552417805844,2.037,23.107
0.0115265,0.014643259541509192,0.6823,0.0224865,0.03141366979517038,2.5234,0.18013200000000001,0.2604038258167495,5.791300000000001,0.0327295,0.043421366284353606,3.9494999999999996,7.346
0.0079255,0.009426513141135486,0.5083,0.0250725,0.035107408762254155,3.0488000000000004,0.13844550000000003,0.2015518053751938,4.1339999999999995,0.0405605,0.05072791687029934,5.3279,5.7385
0.004622,0.005787927090072922,0.26969999999999994,0.005324,0.008105886749764027,0.7503000000000001,0.0800305,0.09833246945948221,2.2074,0.009629,0.014649126253807767,1.4526,6.441000000000002
0.003229,0.004239752351258267,0.2639,0.0021295,0.0026884289092330487,0.1787,0.0408265,0.06900418501801177,1.4245999999999999,0.0031299999999999995,0.0037260971538595174,0.18409999999999999,10.300999999999998
0.013845999999999999,0.019269680848420918,0.8443999999999999,0.0029955000000000003,0.0036432197298543498,0.23969999999999997,0.201267,0.3061124487831228,7.3634,0.006886,0.009512176407111045,0.47670000000000007,43.935500000000005
0.0061855,0.008638856984578457,0.35850000000000004,0.005606,0.008981197024895958,0.7942000000000002,0.049461500000000005,0.05790533524641749,1.4477000000000002,0.0173625,0.0257658873318968,1.9876999999999998,36.077
0.0109545,0.012757795655990105,0.6745,0.012012,0.016378128708738372,1.4697,0.1765215,0.2432778149564814,5.443100000000001,0.023322500000000003,0.03207569874531185,2.7714999999999996,9.5385
0.006622999999999999,0.007946974266977339,0.5535999999999999,0.029047,0.04694921511591008,3.157,0.056587500000000006,0.072660235686378,2.0534999999999997,0.038822,0.052389330020529944,5.7138,8.0705
0.003491,0.004550153843552985,0.3119,0.010473000000000001,0.01885401813937814,1.3923,0.046831000000000005,0.05650175395507647,1.568,0.0170985,0.02640083805488,2.5291,7.326500000000001
0.004023,0.0060330837885777784,0.34709999999999996,0.003344,0.004010648326642464,0.2821,0.041090999999999996,0.053327410400281015,1.3575,0.0032025000000000005,0.004644970398183394,0.42769999999999997,7.433000000000001
0.010153,0.01631024524647008,0.8210999999999999,0.003965,0.006424282061055539,0.46269999999999994,0.22377650000000002,0.3438534527236858,7.5154,0.006230500000000001,0.010685703065311145,0.7333000000000001,31.783999999999995
0.005621,0.006810939729582108,0.33140000000000003,0.0036355,0.004642827802105092,0.44110000000000005,0.043996499999999994,0.054917749862863095,2.5376000000000003,0.012288,0.017680002828054073,1.5621999999999998,52.1555
0.005554,0.0065933299629246525,0.355,0.008947499999999999,0.013557630692713237,1.0930000000000002,0.1558105,0.23405548113641772,4.6821,0.022096499999999998,0.030513096368608675,3.1379,16.0355
0.006787499999999999,0.008407701826301883,0.4727,0.022033,0.03028605949938024,2.4797000000000002,0.046483500000000004,0.06074313500306022,1.8888000000000003,0.028801999999999998,0.03598046692304034,3.6775,9.315
0.0039305,0.005497995089121124,0.3638,0.024446,0.03881357236843834,2.8047,0.0361365,0.047190968945339536,1.7356,0.0265505,0.03371491732156554,4.1745,6.190499999999999
0.0019644999999999997,0.002570671118599188,0.24440000000000003,0.0058165,0.011315615316897265,0.7626,0.019136,0.025448950862461895,0.6033,0.0077610000000000005,0.013143466057322932,0.9153999999999999,4.558
0.0022295000000000006,0.0028458127134440877,0.2431,0.0019524999999999998,0.002464903649232562,0.2231,0.052111,0.0680644099364712,1.1932,0.0033875,0.0049914877541670875,0.31939999999999996,7.5555
0.009559,0.014526647927171637,0.5589999999999999,0.007132500000000001,0.010752267202781001,0.8946999999999999,0.14698100000000003,0.19968524857885722,4.536200000000001,0.0153605,0.024164212174205058,2.4334999999999996,36.93600000000001
0.005118,0.006773950103152517,0.3844,0.007270000000000001,0.010427065742575905,0.9717,0.0309835,0.03814117656811337,1.2756,0.020728500000000004,0.03257564350860931,2.6716,44.375499999999995
0.006407499999999999,0.009638047001337979,0.4071,0.0099075,0.01321084213818332,1.0614,0.0669405,0.09693760647963204,2.1857,0.021851000000000002,0.032721141483756336,2.7918000000000003,13.6825
0.012419500000000002,0.014933072356350519,0.6363000000000001,0.013284,0.01802318506812822,1.6316999999999997,0.0748135,0.10466635825326111,2.3262,0.023991000000000002,0.031054263797424018,3.7699000000000007,8.111
0.0044685,0.005412213040891868,0.4123,0.0207575,0.031232589550019705,2.3884,0.1094975,0.1878505652107547,4.094,0.0245865,0.03276211302709274,3.7687000000000004,4.481
0.0043125,0.005981592597293801,0.4313,0.00379,0.00569916660574158,0.45930000000000004,0.0264075,0.0363568198554274,1.0663,0.008775999999999999,0.0149456147414551,1.1743999999999999,3.4589999999999996
0.0020854999999999997,0.0028335754798487368,0.22820000000000001,0.010097500000000002,0.016319198816118395,1.2035,0.022182,0.03628428309888457,0.9909000000000001,0.0102105,0.01392218194106082,1.4007,6.396
0.0026275000000000005,0.0034923702552850837,0.2826,0.005386500000000001,0.007616176862442206,0.7205,0.0667545,0.0823159471184047,2.3056,0.013563,0.024648324486666432,2.0266,31.483
0.004497,0.007227274728415961,0.3155,0.0032695000000000007,0.004343644782898344,0.41800000000000004,0.062166,0.08173575105178883,2.5359,0.0132425,0.023048235290364424,1.4204,33.6885
0.002461,0.003110755535235773,0.28359999999999996,0.0080975,0.011918361884084573,0.9156,0.048023500000000004,0.062277164755630936,1.5799,0.015758,0.02265005298007049,1.9036,9.698
0.007302500000000001,0.009206223438522444,0.6015,0.026033999999999998,0.037171507905921705,3.5005000000000006,0.047026000000000005,0.058539993167064854,2.5724,0.0519825,0.07205300097844641,6.6441,9.142000000000001
0.006507000000000001,0.00866665448717093,0.4333,0.0231595,0.036094363133320415,3.2205,0.173463,0.23517892550141475,7.279100000000001,0.038165500000000005,0.04974165608421175,6.1837,6.8565
0.0060575,0.007135268039814622,0.2934,0.008147,0.013489662708904178,1.1586,0.081809,0.10083971539031633,1.6537000000000002,0.0101085,0.014352315144254602,1.8509,5.2045
0.002647,0.003223724553990306,0.25110000000000005,0.00266,0.0034075210931115304,0.2254,0.036618,0.049815113168595736,1.3739999999999999,0.002456,0.003329038900343461,0.296,9.2585
0.006415500000000001,0.009646732607468707,0.5112,0.0026075,0.0033952098609658873,0.23290000000000002,0.17340600000000003,0.25078614096476703,6.051500000000001,0.0077325,0.0121907690487516,0.6138,41.3925
0.0047325,0.006898568692127375,0.35419999999999996,0.006538,0.010253087339918646,0.7835999999999999,0.036692,0.043158213586755416,1.5695,0.012921,0.02136085204293125,1.5557999999999996,38.9405
0.007522999999999999,0.009421958395153312,0.5703,0.020350999999999998,0.02881857387172377,2.3252,0.0822015,0.10910307122166636,3.2327,0.027133499999999998,0.032707354677503346,3.0388,8.7355
0.010290500000000003,0.013583064823521972,0.5868,0.027024999999999997,0.04681252076101008,3.5080000000000005,0.10047699999999998,0.1512034417597695,3.6451000000000002,0.02895,0.038342066976103414,3.7398000000000002,3.216
0.003482500000000001,0.004772918394441707,0.30000000000000004,0.0144245,0.02644294329306025,2.1555,0.1423155,0.18622965513043296,4.5055000000000005,0.015343,0.020275480265581874,2.3644,3.5260000000000002
0.0063425,0.008934889478891163,0.37850000000000006,0.0028505,0.003885054697169655,0.33730000000000004,0.026463,0.03640917329465199,0.8956,0.0051719999999999995,0.009445723900263017,0.7105,4.766
0.007876,0.011647755148525403,0.4655999999999999,0.0031085,0.004869666313003387,0.2449,0.1150315,0.1916797418873471,4.4221,0.0024635,0.003091496401421163,0.22890000000000002,20.293000000000003
0.004655,0.006043095233404816,0.3267,0.0031745000000000002,0.004270298584408355,0.2279,0.0442555,0.06543042373391754,2.1257,0.008454000000000001,0.015038427444383938,0.5711000000000002,50.12350000000001
0.005740499999999999,0.007514489337273691,0.3214,0.012138500000000002,0.016373379309110262,1.5558999999999998,0.049771499999999996,0.07355071481637687,2.4682,0.0178925,0.02667516166773877,2.3371,21.2535
0.0113055,0.014846802686100467,0.7683000000000001,0.014307,0.01806031007485752,1.5582,0.0651075,0.08958293001459598,2.5015,0.0251615,0.03608021965010746,3.0112999999999994,9.06
0.010841500000000002,0.013915162593372742,0.5778000000000001,0.010271500000000003,0.016947281492912074,1.4396999999999998,0.0841815,0.10242736231105437,3.0422,0.0274135,0.03683068489724295,4.356600000000001,8.704999999999998
0.0048935,0.006800444838391088,0.4174,0.004704000000000001,0.0060298175760133904,0.5201,0.0630135,0.08595794291396229,1.9489999999999998,0.009570500000000001,0.014952165395018877,1.361,6.837000000000001
0.00681,0.009747225246191862,0.4114,0.0024385,0.0030503360470610446,0.2041,0.053902,0.06653213509275048,1.2717999999999998,0.002312,0.0027327275751527083,0.18359999999999999,8.655499999999998
0.0082955,0.012342513925452952,0.5558000000000001,0.0046489999999999995,0.005707258536285175,0.2669,0.21529600000000002,0.2924523166261468,7.0634,0.0061805,0.007728301883337633,0.3489,39.3835
0.0045885,0.00652814292122959,0.459,0.006168,0.010406166441105966,0.7553999999999998,0.033478,0.040686988092017824,1.9509000000000003,0.0148765,0.02245722266888762,1.9422000000000001,38.64
0.009337999999999999,0.011241205451373977,0.5733,0.014190000000000001,0.02021812800434303,1.7132,0.0898385,0.11500753518791713,3.0457000000000005,0.0204035,0.026055102187479518,2.2442,9.556
0.0088985,0.011711359869801628,0.6443000000000001,0.013289,0.01854508290625847,1.9621999999999997,0.0700835,0.09378518513070175,1.9877000000000002,0.0330055,0.04430011681700173,4.3338,5.645499999999999
0.010195000000000003,0.014274347620819663,0.4196,0.007672000000000001,0.010456237372975042,1.1164,0.07475,0.10004209214125823,2.4795999999999996,0.016809499999999998,0.022653969850778912,2.5222,4.21
0.0027859999999999994,0.003515565388383496,0.25930000000000003,0.0029145,0.003848707575277706,0.38170000000000004,0.0341645,0.04221013326204977,1.013,0.00452,0.007208959703036216,0.6812,5.296
0.007112500000000001,0.009832840383124299,0.5352999999999999,0.003981,0.005440431968143707,0.2736,0.16729350000000004,0.23977228478287477,6.245899999999999,0.0042125,0.006190464441380792,0.4897,26.9265
0.006266000000000001,0.007876204669763224,0.3539,0.0036050000000000006,0.0046719482017676525,0.357,0.057586000000000005,0.0853315135222621,2.1241,0.0118275,0.016083219516004874,1.0002999999999997,49.54299999999999
0.005191,0.006973019432068148,0.4096,0.012371499999999997,0.015973895892987408,1.7157000000000002,0.0727915,0.09669813415986887,2.9569,0.023350500000000003,0.030418146721981603,3.0627,15.06
0.007717999999999999,0.009943842315724842,0.6078,0.014623499999999998,0.019425893801830588,1.7913000000000001,0.065207,0.08309160246378691,2.2459,0.027207999999999996,0.03512120869218484,3.742300000000001,7.309000000000001
0.006894,0.008376174544504192,0.36760000000000004,0.016465499999999997,0.026641243401913508,1.883,0.0524685,0.07139110974063927,2.119,0.025799500000000003,0.03433640415069697,3.8512,5.335
0.0035075,0.004918724428141914,0.2765,0.004751999999999999,0.007374618634207466,0.6642,0.039045500000000004,0.04821212762365917,1.1568999999999998,0.008901000000000001,0.01412610703626445,1.328,4.8035000000000005
0.0035650000000000005,0.004574592878060299,0.2583,0.0020995000000000002,0.002616705944503509,0.191,0.075978,0.09943459659494777,1.9071999999999998,0.002329,0.00290685396950036,0.2021,13.0395
0.008432,0.012510119903502124,0.6098,0.0029205,0.003778445447535269,0.2443,0.119958,0.19295521915719202,4.89,0.008127,0.013016063152889203,0.5545,46.58
0.005168000000000001,0.006515105524855296,0.36840000000000006,0.011087,0.017083881292024948,1.2374999999999998,0.030263000000000005,0.03789384382719705,1.4045999999999998,0.0170345,0.023358661134577043,2.2060999999999997,30.833000000000002
0.00838,0.010233474483282792,0.6833,0.016287,0.02237979892671067,2.0082,0.10363900000000001,0.1352878143071282,3.6885,0.022863999999999995,0.030053405797014085,2.829300000000001,8.744499999999999
0.007009499999999999,0.009018916232009254,0.5000000000000001,0.0159235,0.022387607062837243,2.1411999999999995,0.0523295,0.07110753722356021,1.7148999999999999,0.026329500000000002,0.03527739148519913,4.078099999999999,6.109500000000001
0.0042225000000000006,0.005476171107626203,0.28070000000000006,0.007479,0.012275447038702907,0.9679,0.03174,0.045194916749563774,1.2207,0.014440999999999999,0.021618075770058722,2.1417,4.517
0.004241,0.0068927425601135,0.3342,0.002378,0.003105382424114621,0.2041,0.037047000000000004,0.04312810104792465,0.7292000000000001,0.0027575000000000004,0.003838313431704086,0.29369999999999996,6.615999999999999
0.0086885,0.013066149011855023,0.4758,0.0040035,0.0054334197334643675,0.2724,0.1542695,0.22743703403359797,5.4681,0.0066705,0.008377580199556433,0.49740000000000006,34.166999999999994
0.0051459999999999995,0.006649421027427877,0.3476,0.004481999999999999,0.008443766931885319,0.5595,0.034431,0.04449548516422762,1.6827,0.015345,0.030812177787361932,1.6148,45.836000000000006
0.006977,0.00976710806738617,0.5163000000000001,0.014938499999999999,0.0189946374011193,1.5996,0.0808835,0.10682133050098187,2.8783000000000003,0.0204085,0.026385915750642423,2.4417999999999997,11.345
0.007334,0.009161293576782702,0.4848,0.025286,0.0384121764548691,2.9969,0.053923500000000006,0.0702869088095358,1.6048,0.031922,0.042508223910203535,3.923,5.474500000000001
0.003852,0.00467211943340493,0.316,0.012577500000000002,0.019143532850547727,1.6139999999999999,0.064975,0.09124117820370362,2.3743,0.0182755,0.025014706674274637,2.8209999999999997,4.615
0.0041865,0.006710912754610955,0.36769999999999997,0.003322,0.004344053406669858,0.45920000000000005,0.024287999999999997,0.0297374898066397,0.8866,0.0073095,0.01088134872155102,1.1709,4.471
0.0046525,0.005988902236637362,0.3158,0.0027875,0.0035688583608767667,0.2256,0.0571915,0.09930158885939337,2.0153999999999996,0.0038634999999999997,0.004932975775330748,0.4487,13.902000000000003
0.0068674999999999995,0.009180993954904883,0.48329999999999995,0.0035925000000000006,0.005546129280858858,0.29109999999999997,0.21527050000000003,0.3169322868532015,7.1148,0.0098565,0.014229383331683774,0.9106,45.906499999999994
0.004145,0.005112944357217278,0.3424,0.006213000000000001,0.007941901535526614,0.7286,0.038232,0.04926018168866209,1.6968999999999999,0.019989,0.030891871099044812,2.8283000000000005,30.7675
0.006015,0.00831238834511478,0.5382,0.014489,0.022023040207927697,1.5084,0.09418649999999999,0.11774301783970038,3.466,0.0265525,0.033349308088774496,2.9358000000000004,8.6315
0.005756,0.007687184139852511,0.43450000000000005,0.027060499999999998,0.04156297089958801,3.2309,0.05659499999999999,0.07252338036798892,1.736,0.0259605,0.0329081988264323,3.3977999999999997,3.255
0.003899,0.0049787950349457055,0.3002,0.017618,0.02564262662053168,2.4589999999999996,0.070343,0.09624442789065765,2.707,0.013404000000000001,0.018530391253289823,2.0976999999999997,2.947
0.0020415,0.0026602537472955466,0.23209999999999997,0.0026575000000000006,0.003699114758965988,0.3392,0.029557000000000003,0.03594897773233614,0.9684000000000001,0.0056075,0.008699928160622936,0.735,3.136
0.002853,0.0038131876429045555,0.26890000000000003,0.0037035,0.005222207387685786,0.4966999999999999,0.05090299999999999,0.09563672359507094,1.9747,0.00525,0.007981184122672525,0.7998,12.198
0.006187000000000001,0.007654279848555317,0.3798,0.003699,0.004526775894607552,0.4312,0.1016465,0.16864504721455653,3.5202,0.0123475,0.016252945886823102,1.6056,44.0
0.005804,0.008208830610994481,0.44630000000000003,0.005418500000000001,0.007537635570920101,0.6531,0.018151,0.02325995915731582,0.7056,0.0166665,0.026276208820908697,2.4543999999999997,32.0155
0.0053315,0.006672102367320213,0.42610000000000003,0.011792500000000001,0.016613228163123505,1.3436000000000001,0.0608515,0.08720822753616772,2.4111000000000002,0.0214425,0.026980543915940614,2.5732,9.452
0.0061525,0.007831701603100056,0.48630000000000007,0.0222695,0.03140537931628911,2.7212000000000005,0.0298245,0.036214156762238714,1.0118,0.031581,0.04790818197343748,4.4182,8.389
0.0046605,0.006031977287755649,0.33580000000000004,0.0129735,0.022137503246753006,1.8906,0.096332,0.15312462604035967,3.5704999999999996,0.014137,0.019471396970941763,2.2146,5.231
0.0024925,0.0031565566682700314,0.2723,0.0025265000000000005,0.003560245778032747,0.26649999999999996,0.0355645,0.04424855647362974,0.8734,0.0041435,0.006479749223542529,0.4174,3.5075
0.0059735000000000005,0.009261179730466309,0.428,0.0030785000000000005,0.003918169215335142,0.3629,0.07452199999999999,0.11436948150621301,2.8501000000000003,0.00618,0.009675344955090748,0.7874000000000001,15.706499999999998
0.006031,0.008090735442467514,0.41100000000000003,0.004577,0.00614405403622071,0.6111000000000002,0.049289999999999994,0.07531507485224986,2.4572000000000003,0.021034999999999998,0.02695968657087838,2.2352000000000003,46.712999999999994
0.0025824999999999997,0.0033511117558207453,0.25329999999999997,0.0044340000000000004,0.005867571899857725,0.6036999999999999,0.03204800000000001,0.040620128015554056,1.0417999999999998,0.022291,0.03450843954744984,2.9595,30.8585
0.006817,0.010060213715423743,0.5050000000000001,0.012097,0.016255494455721733,1.5661,0.076299,0.09705103090642571,2.5342999999999996,0.028468499999999997,0.0378096118731732,3.3365,7.6865000000000006
0.007938,0.010927410489223877,0.5593,0.021953999999999998,0.02991664252552415,2.9617,0.033418,0.043657323555160825,1.2384,0.046874,0.06445657375318672,6.146699999999999,6.5405
0.006013999999999999,0.007277953008916724,0.3531,0.02497,0.037553937210364506,3.3863,0.108874,0.14817591977106132,3.7425999999999995,0.029404000000000003,0.04360970419528204,4.973,4.2215
0.0018315,0.0022871707413308698,0.23809999999999998,0.0031505000000000005,0.004779042791187373,0.31100000000000005,0.020725499999999997,0.0310385574729239,0.8813,0.004938,0.007342336140493705,0.5706,4.601
0.0050885,0.008174873087699893,0.5041,0.0058189999999999995,0.009437028133898934,0.5728,0.1269055,0.21290546223617654,4.632300000000001,0.004142,0.006136049217534032,0.562,22.266000000000005
0.0051595,0.006806147956076182,0.3226,0.003928999999999999,0.00547035647832936,0.37150000000000005,0.084911,0.11659804286522137,2.1277,0.0099555,0.01452607827322984,1.0058,51.071000000000005
0.007644,0.009439570964826739,0.4589000000000001,0.015132999999999999,0.020308660714089443,1.7468999999999997,0.0469075,0.074690107444025,1.9990999999999999,0.022897999999999995,0.03200093123644998,2.8171999999999997,19.037
0.0077105,0.00938414354110166,0.6185,0.01717,0.023675749196171172,2.2725,0.058390000000000004,0.08267029756811088,2.3536,0.035300000000000005,0.04745533268242885,4.413,7.5825
0.006614500000000001,0.007545260101547196,0.33780000000000004,0.027607,0.037570524350879105,3.7929,0.07600000000000001,0.09186254786364247,1.9817999999999998,0.0271425,0.037663468374540335,4.2047,5.322
0.002383,0.0029367328785573944,0.2294,0.005565500000000001,0.008217429646793454,0.7783,0.0292745,0.03547006836756873,0.7389,0.009005,0.012993721560815437,1.2962,4.074
0.0023919999999999996,0.002929385601111605,0.24590000000000004,0.0020655,0.0025904343265174667,0.2059,0.071029,0.10136807090992705,1.9809,0.0043245,0.00647880004321788,0.488,11.902999999999999
0.0078335,0.010892137072218654,0.492,0.004396,0.006027097145392631,0.3031,0.13044350000000002,0.19516289388610736,4.7992,0.007259,0.009605847177630925,0.5607,46.539500000000004
0.005488000000000001,0.006931096594334839,0.39909999999999995,0.007348,0.0111523719450169,0.8798999999999999,0.0230775,0.029421516786188984,1.3857,0.014372500000000002,0.021249709409777818,1.7193,32.534
0.0103325,0.01207260328181126,0.6723,0.012140499999999999,0.01714882357481119,1.7104,0.11713699999999999,0.17709650024774629,4.1207,0.023521999999999998,0.03213470864968282,2.8323,8.24
0.006679999999999999,0.008464266063871101,0.4585,0.020038999999999998,0.028097284566306405,2.6441,0.070651,0.08573145163824068,1.7713,0.037175,0.05129282016033043,4.9647,7.636500000000001
0.0045895,0.0066657595216149225,0.3062,0.008314,0.013593090156399317,1.2515,0.106838,0.1405572922334519,3.4404000000000003,0.014668,0.01962803607088595,1.8232000000000004,6.140499999999999
0.0037235000000000002,0.005965261938926068,0.3403,0.002321,0.002943959918205409,0.19689999999999996,0.037489999999999996,0.04587165900640613,0.7217,0.002744,0.0033213701991798503,0.2038,8.2745
0.015356000000000002,0.020259582917720693,0.6903999999999999,0.0031785000000000003,0.0043308024660563774,0.3055,0.18561300000000003,0.2632860581193011,6.7721,0.005524500000000001,0.007209448661305524,0.5092000000000001,38.674499999999995
0.007829,0.011074290044964508,0.388,0.0092225,0.014704956647334939,1.2723,0.0170005,0.022583612421399727,1.3826,0.0216675,0.0330452893768537,2.0518,43.184
0.008614,0.0110622285277425,0.6138,0.0151945,0.01933017718490961,1.8197,0.119817,0.17245537132835267,3.8341000000000003,0.02085,0.027453562610342576,2.2342,10.130500000000001
0.0097695,0.012071965457207042,0.6748000000000001,0.0157615,0.023263741100691435,1.8367,0.050151999999999995,0.05883777273146903,1.6524999999999999,0.029991499999999997,0.03582640995131943,3.6543,7.612
0.004876500000000001,0.006215822552164758,0.3336,0.0189195,0.027671639814076793,2.7133,0.090853,0.11116269922955271,3.4565,0.021639,0.029040266872051985,3.4927,5.2925
